-0.036490545
0.0059820567
0.009571291
-0.03050849
-0.0035892338
-0.011365907
-0.0059820567
-0.0017946169
0.02751746
-0.022731815
-0.00059820566
-0.00059820566
-0.015553347
-0.038285162
-0.03888337
-0.013160524
-0.011365907
-0.042472597
-0.0035892338
0.010767702
0.010767702
-0.016151555
-0.0023928226
-0.025124637
-0.03888337
-0.04486543
0.01794617
0.009571291
0.009571291
-0.03589234
0.014356935
-0.024526432
-0.020937199
-0.041874398
-0.017347965
-0.013160524
-0.024526432
-0.01674976
0.0047856453
-0.00418744
-0.046061836
0.00418744
0.023928227
0.015553347
-0.03888337
-0.014356935
-0.006580262
-0.0059820567
0.0059820567
-0.040079776
-0.020937199
-0.03469593
-0.025124637
-0.03290131
0.018544376
-0.043669015
-0.061615184
-0.014356935
-0.010169497
-0.058624156
0.0059820567
-0.019740788
-0.03888337
-0.026919257
0.0011964113
-0.023330022
0.018544376
-0.0035892338
-0.019142581
-0.047856454
-0.023928227
-0.043070808
0.00418744
-0.026321048
-0.04486543
0.018544376
0.02213361
0.0011964113
-0.02751746
-0.0011964113
-0.00837488
-0.0077766734
0.0
-0.0029910284
0.028115667
0.005383851
-0.00418744
0.0023928226
-0.0035892338
-0.019740788
-0.019142581
-0.017347965
-0.049052864
-0.019142581
-0.0017946169
-0.022731815
0.029312078
0.025722845
-0.009571291
0.0011964113
-0.01794617
-0.019142581
-0.00059820566
0.025124637
0.006580262
-0.006580262
-0.0077766734
-0.00837488
0.015553347
0.020338994
-0.013160524
-0.015553347
-0.009571291
-0.04725825
-0.038285162
0.011964113
0.011365907
-0.036490545
-0.025722845
0.0017946169
-0.025722845
-0.028115667
-0.0071784677
-0.031106694
-0.025124637
-0.024526432
-0.016151555
-0.020937199
-0.014356935
-0.017347965
-0.052642096
-0.014955141
-0.014356935
-0.040677987
-0.040677987
-0.011964113
-0.011964113
-0.00837488
-0.005383851
-0.03050849
-0.02751746
-0.01375873
0.00418744
-0.03349952
-0.038285162
-0.053838514
-0.06999007
-0.022731815
-0.014356935
-0.020338994
-0.00837488
-0.00418744
-0.040079776
-0.036490545
-0.048454657
-0.011964113
-0.014955141
-0.04546363
-0.020937199
-0.0023928226
-0.010169497
-0.020937199
-0.00059820566
-0.0023928226
-0.03349952
-0.018544376
0.00837488
-0.011365907
0.0
-0.008973085
-0.0077766734
0.0017946169
-0.03589234
-0.0029910284
-0.0023928226
-0.015553347
0.01674976
-0.00418744
0.0077766734
-0.01375873
0.018544376
0.0
0.00418744
-0.02213361
0.0
0.026321048
-0.008973085
-0.014356935
0.0029910284
0.00837488
0.0
-0.03589234
-0.0035892338
-0.01674976
-0.03888337
0.01375873
-0.014356935
-0.049052864
-0.01375873
-0.0035892338
-0.046061836
-0.017347965
-0.03349952
0.0035892338
0.00418744
-0.020338994
0.02213361
-0.0059820567
-0.01375873
-0.029910281
0.00418744
-0.06939186
-0.008973085
-0.01375873
-0.01674976
-0.03589234
-0.023330022
-0.0023928226
-0.03230311
-0.011964113
0.015553347
-0.023330022
-0.023928227
0.00837488
-0.028115667
-0.043070808
-0.0029910284
0.012562319
-0.00059820566
-0.00837488
0.0077766734
-0.02871387
-0.013160524
0.0029910284
-0.009571291
-0.010169497
-0.023330022
-0.005383851
-0.011964113
-0.054436717
-0.03469593
0.00837488
0.0017946169
-0.031106694
0.01375873
-0.036490545
-0.020937199
-0.014356935
-0.0628116
-0.023330022
-0.03708875
-0.02751746
-0.048454657
-0.056829542
-0.008973085
-0.020338994
0.0017946169
-0.049052864
0.017347965
-0.020338994
-0.023330022
0.023928227
-0.020338994
-0.053838514
-0.019142581
-0.029312078
-0.036490545
-0.01794617
-0.022731815
-0.031106694
-0.043669015
-0.017347965
-0.06819544
-0.040677987
-0.025722845
0.0059820567
-0.008973085
0.013160524
-0.020338994
-0.0029910284
0.018544376
-0.029910281
-0.010169497
0.0059820567
0.020338994
-0.02871387
-0.009571291
-0.019740788
-0.017347965
-0.049052864
-0.0951147
-0.03708875
-0.0023928226
-0.024526432
-0.037686955
-0.03529413
-0.010767702
-0.019740788
0.01375873
-0.03589234
-0.009571291
0.024526432
0.024526432
-0.071186475
-0.075972125
-0.029910281
0.0047856453
-0.0047856453
-0.012562319
-0.012562319
0.025722845
-0.011964113
-0.00837488
-0.028115667
-0.038285162
-0.03349952
0.005383851
-0.0077766734
0.011964113
-0.028115667
-0.0011964113
-0.00837488
-0.024526432
0.010767702
0.0011964113
-0.01674976
-0.049052864
0.009571291
-0.02213361
-0.026919257
0.020937199
0.0029910284
-0.06101698
0.00418744
-0.005383851
-0.0029910284
-0.042472597
-0.0077766734
-0.011964113
-0.014356935
0.03349952
-0.03469593
0.0
-0.029312078
-0.017347965
-0.012562319
-0.0071784677
-0.056829542
-0.01375873
-0.0023928226
0.031106694
-0.014955141
0.013160524
0.016151555
0.01375873
-0.03589234
0.043070808
0.016151555
0.01794617
0.014356935
0.0023928226
0.006580262
-0.026919257
-0.043070808
-0.028115667
-0.0029910284
0.0047856453
-0.04426722
-0.04426722
-0.047856454
0.0047856453
-0.025722845
-0.01794617
-0.012562319
-0.01375873
-0.029910281
-0.0071784677
-0.01794617
-0.041874398
-0.018544376
-0.0017946169
-0.026919257
-0.03469593
0.0317049
-0.0023928226
0.019142581
0.009571291
-0.025722845
-0.052642096
-0.018544376
-0.043669015
0.0077766734
-0.03888337
0.0
0.0059820567
0.0035892338
0.029312078
-0.005383851
-0.0017946169
-0.018544376
-0.023330022
-0.03469593
-0.03409772
-0.009571291
-0.053240303
-0.024526432
-0.014955141
0.013160524
-0.028115667
-0.015553347
-0.04725825
-0.016151555
-0.008973085
0.016151555
-0.0035892338
0.03409772
0.016151555
-0.05144569
-0.048454657
-0.014955141
0.00059820566
-0.009571291
-0.058025952
-0.00837488
0.020937199
-0.053240303
-0.039481577
-0.01674976
-0.02751746
-0.014356935
-0.049052864
0.005383851
-0.03409772
-0.029312078
-0.03230311
-0.026321048
-0.03349952
-0.01375873
0.01674976
-0.018544376
-0.015553347
-0.07058826
0.00837488
-0.02871387
-0.019142581
-0.0011964113
-0.04486543
-0.0011964113
-0.006580262
0.005383851
-0.046061836
-0.023330022
-0.011964113
0.0059820567
-0.050847482
-0.024526432
-0.0023928226
-0.020937199
-0.03589234
-0.02871387
0.03708875
-0.011365907
0.011365907
-0.01674976
-0.040677987
-0.042472597
-0.03230311
0.0077766734
-0.018544376
-0.006580262
0.00837488
0.005383851
-0.006580262
0.01375873
0.015553347
-0.0011964113
-0.043669015
-0.010169497
-0.03230311
0.008973085
-0.04127619
0.018544376
-0.012562319
-0.018544376
-0.03708875
-0.08195418
-0.03469593
0.02213361
-0.039481577
-0.056829542
-0.01794617
-0.0047856453
-0.046061836
0.014955141
-0.03589234
0.041874398
-0.03409772
-0.009571291
-0.025124637
-0.049651075
-0.038285162
-0.025124637
-0.024526432
-0.02213361
-0.025124637
-0.010767702
-0.03888337
-0.022731815
-0.04486543
-0.040079776
-0.049052864
-0.015553347
-0.026321048
-0.011365907
-0.01375873
0.009571291
0.018544376
-0.061615184
-0.010169497
-0.016151555
0.0059820567
-0.016151555
-0.050249275
-0.026919257
-0.022731815
-0.008973085
-0.00418744
-0.03888337
-0.0077766734
-0.011365907
-0.020338994
-0.014356935
-0.0071784677
-0.020338994
-0.031106694
0.008973085
-0.00837488
-0.028115667
-0.046061836
-0.06879365
-0.028115667
-0.058624156
0.0017946169
-0.043669015
0.0017946169
0.023330022
-0.00059820566
-0.03529413
0.008973085
-0.016151555
-0.015553347
0.048454657
0.019142581
-0.0317049
-0.03230311
0.008973085
-0.014955141
-0.06101698
-0.06759725
-0.019142581
-0.023928227
0.0023928226
0.04725825
-0.00059820566
0.009571291
-0.019740788
-0.022731815
0.02213361
0.0047856453
-0.009571291
-0.059222363
0.012562319
-0.00418744
0.0
-0.03708875
-0.00837488
0.018544376
-0.031106694
-0.01794617
-0.014955141
-0.029910281
-0.059820563
-0.040079776
0.014955141
0.0017946169
-0.031106694
-0.023928227
-0.024526432
-0.0071784677
-0.03349952
-0.04546363
-0.01794617
-0.017347965
0.0017946169
-0.040079776
-0.04426722
-0.03469593
-0.031106694
-0.00059820566
-0.03469593
0.00059820566
-0.0071784677
-0.01375873
-0.052642096
0.018544376
-0.0047856453
-0.03409772
-0.01794617
-0.019740788
-0.0029910284
0.009571291
-0.014356935
-0.040079776
-0.01794617
0.011964113
-0.058025952
-0.03230311
0.0071784677
-0.0071784677
0.0047856453
-0.041874398
0.005383851
0.01375873
-0.02751746
0.024526432
0.00418744
-0.06699904
-0.0071784677
0.0035892338
-0.0047856453
-0.0023928226
-0.03708875
-0.04127619
-0.056829542
-0.01794617
-0.00059820566
-0.038285162
-0.042472597
0.011964113
0.0011964113
-0.0071784677
-0.011365907
-0.036490545
-0.0317049
-0.061615184
-0.050249275
-0.026919257
-0.025722845
-0.03589234
-0.03050849
-0.039481577
-0.05144569
-0.04486543
-0.0029910284
-0.03050849
0.01375873
-0.013160524
-0.03349952
-0.010767702
-0.03589234
-0.02751746
0.0059820567
-0.00059820566
-0.028115667
-0.0077766734
-0.0023928226
0.031106694
-0.02751746
0.01674976
0.010169497
0.016151555
-0.046660043
-0.025722845
-0.0035892338
-0.0029910284
0.012562319
0.014356935
-0.0023928226
-0.03230311
0.00418744
-0.0029910284
-0.03469593
-0.06699904
-0.031106694
0.0017946169
0.0029910284
0.0029910284
-0.049651075
-0.03469593
-0.025722845
-0.0011964113
0.03290131
0.0071784677
0.023928227
-0.043070808
-0.010767702
0.0023928226
0.017347965
-0.03589234
0.011365907
0.0047856453
-0.012562319
-0.05144569
-0.026919257
0.026919257
-0.011964113
0.015553347
0.0077766734
-0.00837488
0.026321048
0.011365907
-0.018544376
-0.015553347
-0.019740788
-0.024526432
-0.014356935
-0.017347965
-0.050847482
-0.020937199
-0.00418744
-0.02213361
-0.020338994
-0.03469593
-0.014955141
0.005383851
0.005383851
0.01375873
-0.02751746
-0.009571291
-0.047856454
0.0
-0.010767702
-0.01674976
0.0029910284
0.008973085
-0.017347965
-0.037686955
-0.00837488
-0.03230311
0.011964113
-0.022731815
-0.019142581
-0.0011964113
-0.019740788
-0.0047856453
0.016151555
0.006580262
-0.00418744
-0.01375873
-0.024526432
0.03230311
-0.011964113
-0.025124637
-0.041874398
-0.061615184
0.011365907
-0.03888337
-0.00837488
-0.006580262
-0.03469593
0.013160524
-0.0029910284
-0.020937199
-0.0071784677
-0.023330022
0.010767702
-0.01674976
-0.021535404
-0.019740788
-0.024526432
-0.056829542
-0.039481577
-0.0071784677
-0.060418773
-0.040079776
-0.025722845
-0.01674976
-0.023330022
-0.0047856453
0.0011964113
0.010767702
-0.053838514
-0.01794617
-0.017347965
-0.041874398
0.048454657
-0.0017946169
-0.025124637
-0.019740788
-0.025124637
-0.054436717
-0.03708875
-0.029910281
-0.016151555
-0.03409772
-0.024526432
-0.031106694
-0.0628116
0.0
-0.02751746
-0.020338994
-0.049052864
-0.020937199
-0.00059820566
-0.03230311
-0.008973085
-0.04725825
-0.021535404
0.017347965
-0.02751746
-0.050249275
-0.048454657
-0.047856454
-0.0059820567
0.021535404
-0.013160524
-0.015553347
-0.048454657
-0.047856454
-0.0059820567
-0.026919257
-0.046061836
0.0017946169
-0.011365907
-0.03050849
0.013160524
-0.053838514
-0.025124637
-0.025124637
-0.048454657
-0.042472597
-0.036490545
-0.03589234
-0.04725825
-0.009571291
0.0011964113
0.011964113
-0.03529413
-0.0011964113
0.010767702
-0.00418744
0.015553347
-0.03888337
-0.0017946169
0.00059820566
-0.029910281
-0.014356935
-0.0047856453
-0.020937199
-0.020937199
-0.023928227
-0.043070808
0.00418744
0.011964113
-0.0011964113
0.0011964113
-0.006580262
-0.0059820567
0.019740788
-0.05503492
-0.04546363
-0.010767702
-0.025124637
-0.016151555
-0.005383851
0.0017946169
-0.011365907
-0.022731815
-0.031106694
-0.019142581
-0.02213361
0.014356935
-0.02871387
-0.03050849
0.00059820566
0.025124637
0.05503492
-0.014356935
-0.0029910284
-0.03230311
-0.025722845
0.0047856453
-0.020338994
-0.03290131
-0.03290131
-0.021535404
-0.0047856453
-0.03230311
-0.023330022
-0.04486543
-0.040079776
-0.011964113
0.019142581
-0.031106694
-0.012562319
-0.03050849
-0.043070808
-0.026321048
0.006580262
-0.014356935
-0.026321048
-0.046660043
-0.019142581
0.006580262
-0.03708875
-0.010169497
-0.014356935
-0.06699904
-0.025722845
-0.056231335
-0.046061836
-0.0077766734
0.008973085
-0.029312078
-0.015553347
-0.029910281
0.01674976
-0.0047856453
-0.0011964113
-0.015553347
-0.010169497
-0.03589234
-0.07298109
0.0071784677
-0.03469593
-0.020338994
-0.03469593
-0.0023928226
0.02213361
-0.019142581
0.014356935
-0.029312078
-0.025124637
-0.03409772
-0.024526432
-0.019740788
-0.0071784677
-0.009571291
-0.03529413
-0.021535404
-0.037686955
0.00418744
-0.03708875
0.018544376
-0.0017946169
-0.01674976
-0.05742774
-0.052043896
0.03349952
-0.022731815
-0.03708875
-0.010767702
-0.02213361
-0.03349952
-0.037686955
-0.0029910284
0.018544376
0.02213361
-0.026919257
-0.01794617
-0.012562319
-0.00418744
-0.04127619
-0.029312078
-0.02213361
-0.028115667
0.018544376
0.011964113
-0.03050849
-0.040079776
-0.041874398
0.005383851
0.011964113
-0.019740788
-0.01375873
-0.0029910284
-0.025722845
0.020338994
-0.016151555
-0.023928227
-0.039481577
-0.023928227
-0.0047856453
0.013160524
-0.0023928226
-0.01674976
-0.02871387
-0.03589234
-0.039481577
-0.0077766734
0.008973085
-0.012562319
-0.023330022
-0.020338994
-0.029910281
-0.06580262
-0.018544376
-0.026919257
0.0035892338
-0.037686955
0.0035892338
0.014955141
-0.038285162
-0.042472597
-0.025124637
-0.019142581
-0.0077766734
-0.016151555
0.018544376
0.036490545
-0.029312078
-0.056829542
-0.015553347
0.021535404
-0.023330022
-0.0011964113
-0.015553347
-0.009571291
0.019740788
-0.026321048
-0.043669015
-0.049052864
-0.0317049
-0.046061836
-0.024526432
-0.005383851
0.046660043
0.006580262
-0.019142581
0.0
-0.01375873
-0.029910281
0.059222363
-0.086141616
-0.021535404
0.0035892338
-0.028115667
-0.036490545
-0.00837488
-0.019740788
0.0023928226
-0.0023928226
-0.046061836
-0.03050849
-0.046061836
-0.019142581
-0.02213361
-0.028115667
-0.00059820566
-0.03708875
-0.014356935
-0.036490545
-0.03888337
0.017347965
-0.011964113
-0.05503492
-0.056231335
-0.038285162
-0.04127619
-0.023928227
-0.024526432
0.0071784677
0.014955141
0.0077766734
0.029910281
0.01375873
-0.06101698
-0.029910281
-0.0023928226
-0.015553347
0.0077766734
-0.015553347
0.0071784677
-0.02871387
-0.040079776
-0.015553347
0.0077766734
-0.025722845
-0.024526432
-0.03409772
0.0011964113
-0.021535404
-0.029312078
-0.014356935
0.04127619
-0.014356935
0.014356935
0.018544376
0.020937199
-0.010169497
-0.009571291
-0.06101698
0.012562319
0.053240303
-0.013160524
-0.024526432
-0.01794617
-0.011964113
0.00059820566
-0.031106694
-0.04725825
-0.009571291
-0.03290131
-0.029910281
-0.014955141
-0.022731815
-0.02213361
-0.03409772
-0.006580262
-0.019740788
-0.0017946169
0.018544376
0.006580262
0.0023928226
-0.02751746
-0.025124637
0.0
0.0
-0.03888337
-0.03050849
0.0047856453
0.0047856453
-0.015553347
-0.024526432
-0.015553347
-0.053240303
-0.026919257
-0.009571291
-0.0077766734
-0.005383851
-0.0017946169
-0.03589234
0.029910281
0.0
-0.029910281
-0.010767702
-0.0035892338
0.014356935
-0.011365907
0.0017946169
0.0029910284
0.013160524
-0.04127619
-0.03050849
-0.0628116
0.014955141
-0.037686955
-0.024526432
-0.01674976
-0.014955141
-0.016151555
-0.018544376
-0.036490545
-0.055633124
0.013160524
-0.029910281
-0.0071784677
-0.01375873
0.01794617
-0.046061836
-0.023928227
-0.021535404
-0.01375873
0.0077766734
-0.021535404
0.028115667
-0.0017946169
0.03050849
0.0017946169
-0.03529413
-0.050847482
-0.018544376
-0.00837488
0.04127619
-0.009571291
0.013160524
-0.021535404
0.015553347
-0.03888337
-0.026321048
-0.028115667
-0.0317049
-0.014955141
0.018544376
-0.0047856453
-0.01375873
-0.014955141
-0.04725825
-0.050249275
0.014356935
0.010767702
-0.0023928226
-0.01674976
-0.011365907
-0.020937199
0.03050849
-0.010169497
-0.03529413
0.022731815
-0.025722845
-0.059820563
-0.017347965
-0.014955141
-0.028115667
-0.026321048
0.0029910284
-0.014356935
-0.01674976
-0.00837488
-0.03409772
-0.011365907
0.011964113
-0.07956135
-0.01794617
-0.025124637
-0.020338994
-0.021535404
-0.021535404
-0.00418744
0.009571291
-0.0017946169
-0.02751746
-0.011365907
0.03708875
-0.056829542
-0.03888337
-0.050249275
-0.03589234
0.012562319
-0.011365907
0.012562319
0.02871387
-0.022731815
-0.03529413
-0.03409772
0.011365907
-0.055633124
0.01375873
0.04426722
-0.017347965
-0.005383851
-0.024526432
-0.014356935
-0.015553347
0.019740788
-0.0634098
-0.040079776
-0.046061836
-0.014955141
-0.023928227
-0.026919257
-0.010169497
-0.046061836
-0.019142581
-0.021535404
-0.089132644
-0.040079776
0.011964113
-0.020338994
-0.0011964113
-0.01375873
0.00059820566
0.0047856453
-0.013160524
-0.017347965
-0.050847482
-0.078364946
-0.06879365
-0.024526432
-0.06580262
-0.039481577
-0.0071784677
-0.024526432
0.0077766734
-0.037686955
-0.0071784677
0.0047856453
0.021535404
-0.020937199
0.021535404
0.0023928226
-0.011365907
-0.0023928226
-0.005383851
-0.026321048
-0.031106694
0.009571291
0.0023928226
-0.039481577
-0.043669015
0.0017946169
-0.016151555
0.014955141
-0.0035892338
-0.008973085
0.011964113
-0.013160524
0.015553347
0.012562319
0.02871387
-0.011365907
-0.06520442
-0.03888337
0.029312078
0.01794617
-0.028115667
-0.0023928226
-0.01674976
0.00837488
-0.005383851
0.012562319
-0.040079776
-0.03290131
-0.040677987
-0.0023928226
-0.036490545
-0.028115667
-0.006580262
-0.018544376
-0.03589234
-0.04725825
-0.052043896
-0.0077766734
-0.0059820567
-0.039481577
0.010169497
-0.009571291
-0.023330022
0.0071784677
-0.00059820566
-0.0077766734
-0.010767702
-0.03349952
-0.046061836
0.025722845
-0.013160524
-0.00418744
-0.042472597
-0.023928227
0.00837488
-0.02213361
-0.019142581
-0.03589234
0.015553347
0.011964113
-0.00418744
0.008973085
0.023928227
0.017347965
-0.053240303
-0.019740788
-0.0017946169
-0.026321048
-0.010169497
-0.011964113
0.012562319
-0.016151555
-0.059222363
-0.03529413
-0.02871387
-0.014955141
-0.01375873
-0.016151555
-0.029312078
-0.03409772
-0.00837488
0.0
-0.036490545
-0.03529413
0.0059820567
0.025124637
-0.0071784677
0.01375873
-0.040079776
-0.03050849
-0.020937199
0.008973085
-0.047856454
0.005383851
-0.02213361
0.011964113
-0.04725825
-0.022731815
0.0059820567
-0.050847482
-0.028115667
0.020937199
-0.00059820566
-0.026321048
-0.029910281
-0.01375873
0.02213361
0.046061836
0.01375873
-0.00418744
-0.023928227
0.005383851
-0.0023928226
0.00059820566
-0.0317049
-0.038285162
-0.014955141
0.0071784677
0.02213361
-0.02751746
-0.036490545
0.022731815
-0.008973085
-0.022731815
-0.005383851
-0.01375873
-0.019142581
0.013160524
-0.038285162
-0.008973085
-0.016151555
-0.042472597
0.01794617
-0.037686955
0.0
0.03589234
-0.043669015
-0.040079776
-0.047856454
-0.040677987
-0.053240303
-0.06999007
-0.03589234
0.011964113
-0.03708875
-0.023330022
0.04127619
-0.03708875
-0.020937199
-0.01375873
-0.011964113
-0.03469593
-0.010169497
-0.04426722
-0.03349952
-0.025124637
0.0023928226
0.026321048
-0.049651075
0.00418744
-0.053240303
-0.016151555
-0.0029910284
-0.012562319
0.020937199
0.026919257
-0.019142581
-0.026321048
-0.037686955
-0.0071784677
-0.0077766734
-0.026919257
-0.0011964113
-0.020338994
-0.010767702
-0.017347965
-0.037686955
-0.023928227
-0.009571291
-0.02213361
0.0029910284
-0.04546363
-0.02213361
-0.009571291
-0.04546363
-0.021535404
-0.020937199
0.023330022
-0.038285162
-0.02871387
-0.018544376
-0.04486543
-0.038285162
-0.024526432
0.011964113
-0.056829542
-0.005383851
0.0071784677
-0.01375873
-0.018544376
-0.0047856453
0.0047856453
-0.021535404
-0.024526432
0.0017946169
-0.011365907
-0.00837488
0.0017946169
0.014356935
0.038285162
0.010169497
0.00837488
-0.02871387
0.0059820567
-0.00059820566
-0.0035892338
0.0029910284
-0.061615184
-0.0017946169
0.0029910284
-0.0023928226
0.010767702
0.014356935
0.012562319
-0.01674976
0.01375873
-0.0023928226
-0.012562319
-0.0047856453
-0.021535404
-0.009571291
-0.05503492
-0.03469593
0.0059820567
0.010767702
-0.017347965
0.020937199
-0.0047856453
0.008973085
-0.023928227
-0.029910281
-0.03290131
0.00837488
0.00418744
0.0059820567
-0.010169497
0.0077766734
-0.017347965
-0.03708875
0.013160524
-0.008973085
-0.012562319
-0.0047856453
-0.03290131
-0.02213361
-0.016151555
-0.047856454
-0.03529413
-0.014356935
-0.017347965
-0.011964113
-0.025722845
-0.011365907
-0.022731815
0.00059820566
-0.043669015
-0.014356935
0.00837488
-0.011365907
-0.014955141
-0.011365907
0.011365907
0.00837488
0.012562319
-0.021535404
0.03708875
-0.00059820566
0.010169497
-0.022731815
-0.029312078
-0.021535404
-0.06580262
-0.037686955
-0.020338994
-0.0317049
0.005383851
0.0029910284
0.02213361
-0.008973085
-0.050847482
-0.023330022
-0.010767702
0.00837488
-0.011964113
0.0035892338
-0.01674976
-0.011365907
-0.022731815
-0.0029910284
-0.019142581
-0.020338994
-0.018544376
-0.019740788
-0.018544376
-0.011365907
-0.025722845
-0.03230311
0.00837488
-0.01794617
-0.019740788
-0.014356935
0.008973085
0.0017946169
-0.0017946169
-0.02871387
0.0
-0.04725825
0.0077766734
-0.013160524
-0.050249275
0.020937199
-0.03050849
0.0029910284
-0.005383851
-0.01375873
0.0029910284
-0.036490545
-0.011964113
-0.010767702
-0.009571291
-0.02751746
-0.03708875
-0.01674976
-0.020338994
-0.040079776
-0.04127619
0.022731815
-0.048454657
-0.021535404
-0.011964113
-0.01375873
-0.049651075
-0.03050849
0.02213361
-0.03708875
-0.021535404
0.010169497
-0.03230311
-0.011365907
0.025124637
-0.0077766734
-0.013160524
-0.025124637
0.0071784677
-0.0634098
0.010169497
-0.025722845
-0.01674976
0.020937199
0.010767702
-0.019740788
0.010767702
-0.040079776
-0.022731815
-0.03888337
-0.021535404
-0.00059820566
-0.012562319
0.0035892338
-0.028115667
-0.0077766734
-0.023928227
-0.0047856453
0.029312078
0.0
-0.010169497
-0.006580262
-0.026919257
0.010169497
-0.006580262
-0.029910281
-0.009571291
0.022731815
-0.03050849
-0.03409772
-0.02213361
-0.025722845
0.01674976
-0.013160524
0.0029910284
-0.019142581
0.006580262
-0.020937199
0.010767702
-0.00837488
0.0
0.025124637
0.011365907
-0.014356935
-0.03589234
0.0071784677
-0.025722845
0.0017946169
-0.01375873
-0.062213387
0.008973085
-0.042472597
-0.0035892338
-0.014356935
-0.046061836
-0.052642096
-0.013160524
-0.023928227
-0.014356935
-0.026919257
-0.036490545
-0.02751746
-0.029910281
-0.019740788
-0.012562319
0.013160524
-0.026919257
-0.021535404
-0.04426722
-0.005383851
0.01794617
-0.016151555
0.0029910284
-0.015553347
0.0011964113
-0.019142581
-0.022731815
-0.052642096
0.018544376
-0.055633124
-0.025722845
-0.01375873
-0.040079776
-0.0035892338
0.03050849
-0.040677987
-0.0071784677
-0.014955141
-0.042472597
-0.023330022
-0.010767702
-0.056231335
-0.03409772
-0.03708875
-0.016151555
-0.019142581
-0.019740788
-0.050249275
-0.00418744
-0.036490545
-0.010767702
-0.03230311
-0.0035892338
-0.03409772
-0.01375873
0.009571291
0.006580262
-0.010169497
-0.026919257
-0.016151555
-0.020937199
-0.017347965
-0.011964113
-0.026321048
-0.005383851
-0.016151555
-0.03050849
-0.04127619
-0.019740788
-0.012562319
-0.01674976
-0.017347965
0.01794617
-0.03708875
-0.0047856453
-0.038285162
-0.014955141
-0.05503492
-0.038285162
0.016151555
0.025124637
-0.03349952
-0.00837488
-0.06759725
-0.047856454
-0.03409772
-0.023928227
0.010169497
-0.013160524
-0.01794617
-0.008973085
-0.022731815
-0.00837488
-0.0023928226
0.02871387
0.011365907
-0.0035892338
-0.03230311
0.02213361
-0.017347965
-0.01794617
0.010169497
0.009571291
0.017347965
0.02871387
-0.03050849
-0.0017946169
-0.019740788
0.0023928226
-0.01674976
-0.013160524
0.0011964113
-0.03050849
-0.026321048
-0.01375873
-0.03050849
0.010767702
-0.0071784677
0.011964113
0.0059820567
0.0
-0.031106694
-0.03708875
0.03349952
0.0
-0.005383851
-0.046061836
0.010169497
-0.06879365
-0.039481577
-0.0029910284
0.0029910284
0.038285162
-0.031106694
-0.0011964113
-0.008973085
-0.00418744
-0.0023928226
-0.010169497
-0.0047856453
0.010767702
-0.005383851
-0.014955141
0.011964113
-0.024526432
-0.03708875
-0.0035892338
-0.047856454
-0.058025952
-0.006580262
-0.020937199
-0.03290131
-0.0077766734
0.0071784677
-0.049651075
0.008973085
-0.020937199
-0.028115667
-0.0317049
-0.011964113
0.05144569
-0.014955141
-0.020338994
-0.010767702
-0.04725825
-0.00837488
0.00059820566
-0.04426722
-0.011365907
0.021535404
-0.0077766734
0.018544376
-0.016151555
-0.03349952
-0.04486543
-0.006580262
-0.017347965
-0.026919257
-0.066400826
-0.005383851
-0.0035892338
-0.022731815
-0.037686955
0.0047856453
-0.026321048
0.0047856453
-0.026919257
0.02751746
0.0023928226
-0.009571291
0.04486543
0.013160524
0.005383851
-0.04426722
-0.014356935
0.0023928226
-0.03409772
0.013160524
-0.019142581
-0.03230311
-0.0317049
-0.03409772
-0.021535404
0.018544376
-0.009571291
-0.013160524
0.016151555
-0.020338994
-0.018544376
-0.016151555
-0.03469593
-0.014955141
-0.006580262
-0.02871387
-0.056231335
-0.017347965
0.024526432
-0.039481577
-0.026919257
-0.026919257
0.020937199
-0.0047856453
-0.026919257
-0.0035892338
0.06939186
-0.010767702
-0.00837488
-0.011964113
-0.07058826
-0.020338994
0.013160524
0.017347965
-0.00059820566
-0.01794617
0.020338994
-0.03050849
-0.019142581
0.008973085
-0.008973085
-0.02213361
-0.02213361
-0.052043896
-0.028115667
-0.0047856453
0.008973085
0.026321048
-0.013160524
-0.00418744
-0.02871387
-0.037686955
0.024526432
-0.05742774
-0.043070808
0.00059820566
-0.03050849
-0.031106694
0.0059820567
0.0017946169
-0.00418744
0.04725825
0.039481577
-0.0317049
-0.01674976
0.0017946169
-0.056829542
-0.026321048
0.00059820566
-0.029312078
-0.014356935
0.010169497
0.014356935
0.0011964113
-0.006580262
-0.0023928226
-0.015553347
-0.021535404
-0.0077766734
-0.011964113
-0.043669015
-0.010767702
-0.040079776
0.005383851
-0.029312078
-0.029910281
0.0077766734
-0.0029910284
-0.020338994
-0.03469593
-0.0047856453
-0.014955141
-0.050847482
-0.026321048
-0.01674976
-0.061615184
-0.029910281
-0.041874398
0.03349952
-0.010767702
-0.0077766734
-0.04426722
-0.03529413
-0.037686955
-0.016151555
0.006580262
-0.020338994
-0.01375873
-0.00059820566
-0.026321048
-0.00418744
-0.052642096
-0.021535404
-0.008973085
0.0029910284
-0.0011964113
-0.0047856453
0.005383851
0.031106694
-0.0059820567
-0.011365907
-0.076570325
-0.010169497
-0.00837488
-0.010767702
-0.018544376
-0.0023928226
0.0047856453
0.015553347
-0.008973085
-0.00418744
0.01375873
-0.020338994
-0.02751746
-0.040079776
-0.0017946169
-0.043669015
0.011365907
-0.036490545
0.00837488
0.010767702
-0.023928227
-0.015553347
-0.019740788
-0.025722845
-0.026919257
-0.041874398
-0.02871387
-0.055633124
-0.04127619
-0.0077766734
0.022731815
-0.0011964113
-0.03050849
-0.03409772
-0.019142581
0.00059820566
-0.03888337
-0.040079776
-0.022731815
-0.00837488
-0.011365907
0.012562319
-0.01375873
-0.03469593
-0.052043896
0.029312078
-0.02871387
-0.020338994
-0.06699904
0.029910281
-0.0023928226
0.0011964113
-0.03349952
-0.014356935
-0.025722845
-0.09092726
-0.0071784677
-0.014955141
-0.03529413
-0.03888337
0.0029910284
0.012562319
0.0017946169
-0.021535404
0.03290131
-0.00837488
0.0
-0.005383851
0.03589234
-0.008973085
-0.03290131
-0.018544376
-0.023928227
-0.042472597
-0.011964113
0.0035892338
-0.03050849
0.02213361
-0.020937199
0.04426722
0.03230311
-0.043669015
-0.03529413
-0.036490545
-0.0029910284
0.0023928226
-0.020338994
-0.01375873
0.0059820567
-0.02213361
-0.050249275
-0.021535404
-0.049651075
0.0011964113
-0.019142581
-0.031106694
-0.022731815
-0.040677987
-0.010767702
-0.01794617
-0.019142581
-0.04127619
-0.010767702
-0.046660043
-0.00837488
-0.025124637
-0.060418773
-0.040079776
0.0023928226
-0.01794617
-0.0035892338
-0.0071784677
-0.037686955
0.02751746
0.03888337
-0.01375873
-0.024526432
0.0077766734
-0.010767702
-0.03469593
0.005383851
-0.023928227
0.0011964113
0.009571291
-0.053240303
0.018544376
-0.0023928226
-0.012562319
0.0035892338
0.005383851
-0.01794617
0.03589234
-0.03409772
-0.018544376
-0.008973085
-0.04486543
0.0
-0.024526432
-0.036490545
-0.009571291
-0.03230311
-0.0071784677
-0.0047856453
-0.0317049
-0.0023928226
0.011365907
-0.0059820567
-0.0017946169
0.00059820566
-0.0023928226
-0.01375873
-0.011365907
0.012562319
-0.018544376
-0.0047856453
-0.026919257
-0.029910281
-0.03349952
-0.010169497
-0.05503492
-0.015553347
-0.019142581
0.01375873
-0.01674976
-0.013160524
0.024526432
-0.025722845
-0.029910281
-0.014955141
-0.064008005
-0.02213361
-0.008973085
-0.009571291
-0.0035892338
-0.006580262
0.03230311
-0.0047856453
0.02213361
-0.02751746
-0.01794617
-0.031106694
-0.050847482
-0.01375873
-0.009571291
0.02871387
0.012562319
-0.019142581
-0.052642096
-0.02751746
-0.023330022
-0.00837488
0.015553347
-0.019142581
-0.0317049
0.0071784677
0.005383851
-0.014356935
-0.012562319
-0.043669015
-0.014955141
-0.038285162
0.00837488
-0.021535404
0.0035892338
-0.020338994
-0.03349952
-0.020338994
-0.010767702
-0.029910281
0.0077766734
-0.052642096
-0.016151555
-0.021535404
-0.02751746
-0.015553347
-0.0017946169
-0.047856454
-0.0035892338
-0.038285162
-0.0029910284
-0.010767702
-0.026919257
-0.010169497
-0.017347965
0.010767702
-0.03349952
0.024526432
-0.017347965
-0.03529413
0.03050849
0.014955141
0.0017946169
-0.03290131
-0.056829542
-0.043669015
0.031106694
-0.031106694
0.005383851
0.020937199
-0.037686955
-0.015553347
-0.048454657
-0.015553347
0.024526432
-0.05742774
-0.009571291
-0.025124637
-0.03409772
-0.0017946169
-0.023928227
-0.031106694
-0.021535404
-0.019740788
0.019142581
-0.056829542
0.02871387
0.0
-0.00418744
0.005383851
-0.017347965
0.023330022
-0.01794617
-0.03050849
-0.014955141
-0.013160524
-0.03409772
0.011365907
-0.0071784677
0.0029910284
0.018544376
-0.005383851
-0.028115667
-0.0011964113
-0.020937199
-0.058624156
-0.0317049
-0.03708875
-0.04127619
-0.006580262
-0.046061836
-0.019142581
0.04127619
-0.02213361
-0.061615184
-0.029910281
0.0047856453
0.014955141
0.010767702
-0.043070808
0.0029910284
-0.024526432
-0.03290131
-0.024526432
-0.0735793
-0.00837488
0.0071784677
-0.008973085
0.005383851
-0.011964113
0.0029910284
-0.046061836
-0.016151555
-0.03349952
-0.01674976
-0.0735793
0.018544376
0.046061836
-0.0029910284
0.00059820566
0.019142581
-0.02213361
0.00837488
-0.03230311
-0.022731815
-0.023928227
0.025722845
0.0047856453
-0.011365907
-0.046660043
-0.02751746
-0.01375873
-0.0023928226
-0.03529413
0.020937199
-0.013160524
-0.009571291
0.017347965
-0.056829542
-0.025124637
-0.009571291
-0.0317049
-0.03529413
-0.03050849
-0.019740788
-0.023330022
-0.03589234
-0.019740788
-0.028115667
-0.058025952
-0.025124637
-0.0047856453
-0.040677987
-0.005383851
-0.010767702
-0.02213361
-0.06879365
-0.025124637
-0.009571291
-0.01794617
0.00837488
-0.03230311
-0.01375873
0.050847482
-0.006580262
0.010169497
-0.028115667
-0.023928227
-0.0029910284
-0.01674976
-0.0059820567
0.008973085
0.009571291
-0.019740788
-0.028115667
-0.01375873
-0.018544376
-0.020937199
-0.019740788
-0.026919257
-0.017347965
-0.040677987
-0.020338994
0.0071784677
0.0077766734
-0.0017946169
-0.0011964113
0.021535404
0.018544376
-0.03529413
0.018544376
-0.04426722
0.018544376
-0.016151555
-0.02213361
-0.008973085
-0.0317049
-0.029312078
-0.02213361
0.0628116
0.014356935
-0.0017946169
0.005383851
-0.028115667
0.01674976
-0.0071784677
-0.020937199
0.011365907
-0.023330022
-0.0035892338
-0.021535404
-0.02751746
-0.014955141
0.03529413
-0.0035892338
-0.02213361
0.005383851
-0.01794617
0.017347965
-0.059222363
-0.050847482
-0.010169497
-0.016151555
-0.008973085
-0.01674976
-0.0317049
0.006580262
-0.02751746
-0.008973085
0.01794617
-0.02213361
-0.03230311
-0.037686955
-0.019142581
-0.017347965
-0.04546363
0.011964113
-0.03290131
0.02871387
-0.0023928226
-0.011365907
0.010767702
0.0
-0.01794617
-0.028115667
-0.01375873
-0.019740788
0.006580262
0.0035892338
-0.020338994
-0.028115667
0.03888337
0.0023928226
0.008973085
0.017347965
0.0
0.00418744
-0.022731815
0.0071784677
-0.006580262
-0.019740788
-0.010169497
-0.014356935
-0.06520442
-0.050847482
-0.056829542
-0.01674976
-0.03708875
0.038285162
0.013160524
-0.07776674
0.03230311
-0.06101698
-0.03708875
-0.053240303
-0.029312078
-0.05144569
-0.019142581
-0.013160524
0.011365907
-0.0059820567
0.025722845
-0.0071784677
0.0011964113
0.00418744
-0.0047856453
-0.023928227
0.0071784677
-0.011964113
-0.0059820567
-0.061615184
-0.046660043
0.018544376
-0.050847482
-0.026321048
-0.01794617
-0.037686955
-0.028115667
-0.008973085
0.03469593
0.012562319
-0.014955141
-0.018544376
-0.043070808
-0.041874398
0.025124637
-0.009571291
-0.00059820566
0.020937199
-0.0071784677
-0.0017946169
-0.005383851
0.005383851
0.0059820567
-0.028115667
-0.04486543
-0.048454657
-0.021535404
-0.009571291
-0.028115667
-0.02213361
-0.009571291
0.0059820567
-0.078364946
-0.029312078
-0.026321048
-0.048454657
-0.029312078
0.0317049
-0.011365907
0.0071784677
0.00059820566
0.0011964113
-0.03230311
0.01674976
-0.03230311
-0.029312078
-0.00837488
-0.011964113
-0.009571291
-0.023330022
0.024526432
-0.017347965
0.00837488
0.00837488
-0.025124637
0.0047856453
-0.010767702
-0.008973085
-0.036490545
-0.010767702
-0.064008005
0.0011964113
0.011365907
-0.00418744
-0.00418744
0.013160524
-0.039481577
-0.036490545
-0.038285162
-0.0035892338
-0.02871387
-0.04426722
-0.00837488
0.005383851
-0.017347965
-0.03589234
-0.053240303
-0.01674976
0.015553347
-0.0023928226
-0.009571291
0.014955141
0.008973085
-0.022731815
0.00059820566
0.020338994
-0.03230311
-0.023928227
-0.03230311
-0.03050849
-0.022731815
0.0071784677
-0.00059820566
0.010169497
-0.0035892338
-0.053240303
-0.00837488
-0.013160524
0.011964113
-0.037686955
-0.03589234
-0.047856454
-0.008973085
-0.01375873
-0.038285162
-0.006580262
0.005383851
0.00059820566
-0.03050849
-0.0011964113
-0.018544376
0.029910281
-0.016151555
-0.049651075
0.011964113
-0.0017946169
-0.03290131
0.03050849
-0.03888337
-0.050847482
-0.02751746
0.0017946169
-0.02751746
0.006580262
-0.050249275
0.038285162
-0.03589234
-0.013160524
-0.040079776
-0.03888337
0.005383851
0.0047856453
-0.023928227
-0.043669015
-0.025722845
-0.00837488
0.02871387
-0.031106694
-0.024526432
0.01375873
-0.015553347
-0.00418744
-0.024526432
-0.0077766734
0.014955141
-0.017347965
0.005383851
-0.03290131
-0.01794617
-0.011365907
-0.00418744
-0.02213361
-0.0735793
-0.058624156
-0.008973085
0.025722845
-0.0017946169
-0.014955141
-0.01674976
-0.017347965
0.008973085
0.01674976
-0.037686955
-0.00837488
0.0035892338
-0.015553347
-0.022731815
-0.012562319
-0.01794617
0.020937199
-0.023330022
0.023330022
-0.02871387
-0.028115667
-0.025722845
-0.058025952
-0.026919257
-0.028115667
-0.01794617
-0.011365907
0.011964113
-0.01674976
0.019740788
-0.00418744
-0.015553347
-0.01375873
-0.038285162
0.038285162
-0.019740788
-0.02751746
-0.0071784677
-0.05144569
-0.058624156
-0.016151555
-0.023928227
-0.053838514
-0.028115667
-0.031106694
-0.01794617
-0.0077766734
-0.011964113
-0.01375873
-0.03888337
-0.022731815
-0.062213387
-0.011964113
0.022731815
-0.005383851
-0.013160524
-0.02871387
-0.010767702
-0.020937199
0.040079776
-0.0077766734
-0.029910281
-0.043070808
-0.01674976
0.015553347
-0.028115667
0.0029910284
-0.058624156
0.019740788
0.028115667
-0.0017946169
0.025124637
-0.0059820567
0.03050849
-0.053838514
-0.009571291
-0.006580262
-0.0047856453
-0.005383851
-0.06759725
-0.0071784677
0.022731815
-0.02751746
-0.005383851
0.0047856453
0.010169497
-0.0071784677
-0.021535404
-0.026321048
-0.023928227
-0.0077766734
-0.006580262
-0.00418744
0.039481577
-0.009571291
0.0017946169
0.010767702
-0.029910281
-0.019142581
-0.03050849
-0.026321048
-0.010169497
-0.014356935
-0.006580262
-0.049651075
-0.049052864
-0.01794617
0.008973085
-0.0011964113
0.00837488
-0.025124637
-0.019142581
-0.01794617
-0.023928227
-0.043070808
0.050249275
-0.008973085
0.010169497
-0.0023928226
-0.0023928226
-0.03290131
-0.00837488
-0.026919257
-0.031106694
-0.0077766734
-0.0023928226
0.0071784677
-0.023928227
0.021535404
-0.040677987
-0.036490545
-0.054436717
0.04127619
-0.00059820566
0.006580262
-0.023928227
-0.023330022
-0.014955141
-0.049651075
-0.017347965
-0.0077766734
0.020937199
-0.013160524
-0.040079776
-0.014955141
-0.02871387
-0.0071784677
0.00059820566
-0.03589234
0.011365907
-0.026321048
-0.03290131
0.014356935
-0.010767702
-0.021535404
-0.03409772
-0.013160524
-0.043669015
-0.019142581
0.0017946169
0.018544376
-0.023928227
-0.028115667
-0.021535404
-0.016151555
0.048454657
-0.04127619
-0.008973085
-0.029312078
-0.053838514
-0.018544376
-0.039481577
-0.0023928226
-0.011964113
0.005383851
-0.03050849
-0.04546363
-0.05144569
0.020338994
-0.03050849
0.00059820566
-0.026919257
-0.011365907
-0.00837488
-0.0077766734
-0.025722845
-0.046660043
0.00059820566
0.013160524
-0.041874398
-0.03290131
-0.031106694
-0.020338994
0.0029910284
-0.046061836
0.010169497
-0.07776674
-0.05144569
-0.02871387
-0.0059820567
-0.025722845
-0.019142581
-0.020937199
-0.026321048
-0.010767702
-0.02871387
-0.03529413
0.025722845
0.014955141
0.014356935
0.014955141
-0.025722845
-0.025722845
-0.012562319
-0.03349952
-0.017347965
0.0017946169
-0.012562319
-0.0047856453
-0.055633124
-0.00418744
-0.013160524
0.00418744
-0.010169497
0.0017946169
0.006580262
-0.010169497
-0.013160524
-0.03469593
-0.025722845
0.008973085
-0.0059820567
-0.0077766734
0.009571291
0.026919257
0.0029910284
0.010767702
-0.03589234
0.01375873
-0.014356935
-0.013160524
0.019740788
-0.043669015
-0.0017946169
-0.020338994
0.0017946169
-0.03589234
-0.010767702
0.0017946169
-0.031106694
-0.061615184
-0.046660043
-0.03290131
0.024526432
-0.024526432
-0.04546363
-0.019142581
0.0
-0.013160524
-0.0071784677
0.01375873
0.021535404
0.03589234
-0.006580262
-0.02871387
-0.025722845
-0.0059820567
-0.014356935
0.01674976
-0.0071784677
-0.010169497
-0.026919257
-0.059820563
-0.09750752
-0.020937199
-0.014955141
-0.023330022
-0.00837488
-0.0059820567
-0.018544376
-0.025722845
-0.04127619
-0.021535404
-0.009571291
0.018544376
-0.03589234
0.019740788
-0.0059820567
-0.043669015
-0.020937199
-0.03050849
-0.0059820567
-0.005383851
-0.00418744
0.00418744
-0.04546363
-0.018544376
-0.01794617
0.042472597
0.014356935
-0.011365907
0.009571291
-0.0035892338
0.0035892338
0.014356935
-0.016151555
-0.03708875
-0.01674976
0.00418744
-0.053838514
0.021535404
0.026919257
-0.00837488
-0.03050849
-0.015553347
-0.021535404
-0.014955141
-0.0071784677
0.03230311
-0.03349952
-0.041874398
-0.0023928226
-0.03409772
-0.03290131
-0.040079776
-0.0023928226
0.010767702
-0.021535404
-0.026321048
0.011964113
-0.011365907
-0.0317049
-0.03529413
0.0035892338
0.005383851
-0.0047856453
-0.015553347
0.010169497
-0.029910281
-0.05503492
-0.012562319
-0.039481577
-0.061615184
-0.026321048
0.01674976
-0.021535404
-0.014955141
0.02751746
0.04127619
-0.043669015
-0.019740788
-0.03529413
0.029910281
0.03349952
-0.0011964113
-0.015553347
0.0011964113
-0.04486543
0.00059820566
-0.019142581
-0.012562319
-0.008973085
-0.050249275
0.0023928226
-0.018544376
0.014356935
0.0
0.05503492
-0.0077766734
0.021535404
-0.03529413
-0.023330022
0.0011964113
0.018544376
0.0071784677
-0.021535404
-0.03050849
-0.029910281
-0.0059820567
-0.049651075
0.021535404
-0.04486543
-0.0011964113
0.0035892338
-0.025722845
-0.043669015
-0.048454657
-0.056231335
-0.049052864
-0.013160524
-0.042472597
-0.043070808
-0.026321048
-0.03589234
0.00837488
0.0017946169
-0.011964113
0.04486543
-0.020937199
0.022731815
-0.014955141
-0.012562319
-0.023330022
0.0035892338
-0.0077766734
-0.041874398
-0.036490545
0.014356935
-0.039481577
-0.011964113
-0.014356935
-0.016151555
-0.059820563
-0.03529413
0.0047856453
-0.024526432
0.037686955
0.005383851
0.0017946169
-0.010767702
-0.014955141
-0.010767702
0.014356935
0.0047856453
0.02213361
-0.036490545
-0.055633124
-0.010767702
0.0023928226
0.00059820566
-0.02213361
0.0
-0.020338994
-0.011365907
-0.013160524
-0.006580262
-0.013160524
-0.014356935
0.0011964113
-0.042472597
-0.029312078
0.00837488
-0.0059820567
0.0011964113
0.03349952
-0.053240303
-0.0317049
-0.024526432
-0.040079776
0.005383851
-0.048454657
-0.05144569
-0.00837488
-0.025124637
-0.013160524
0.016151555
-0.0011964113
-0.022731815
-0.01794617
-0.040677987
-0.009571291
-0.052642096
-0.020937199
-0.012562319
-0.020937199
-0.028115667
-0.029312078
-0.019142581
-0.006580262
-0.016151555
-0.014955141
-0.006580262
-0.03349952
-0.03349952
-0.03469593
-0.029312078
-0.03529413
-0.020937199
-0.019740788
0.03708875
0.03529413
0.017347965
-0.053838514
-0.03589234
-0.0011964113
0.021535404
-0.013160524
-0.020338994
0.011365907
-0.03050849
0.014955141
0.026919257
-0.00418744
0.0059820567
-0.028115667
-0.053838514
-0.052642096
-0.010767702
-0.017347965
0.01674976
0.020338994
-0.015553347
-0.029910281
-0.031106694
0.0011964113
-0.00837488
-0.026321048
-0.005383851
0.015553347
-0.026919257
0.015553347
-0.0011964113
0.008973085
-0.014356935
-0.019142581
0.03409772
0.03888337
-0.015553347
-0.043669015
-0.0035892338
-0.0017946169
-0.0023928226
-0.0029910284
0.005383851
-0.018544376
-0.050847482
0.0023928226
-0.010767702
-0.02871387
-0.014356935
-0.058025952
-0.024526432
-0.039481577
0.014356935
0.008973085
-0.03290131
-0.031106694
-0.041874398
0.008973085
-0.029312078
-0.0035892338
-0.0077766734
0.017347965
-0.010767702
-0.016151555
-0.038285162
-0.026919257
-0.015553347
-0.008973085
-0.04127619
0.025722845
-0.020338994
-0.00837488
-0.04486543
-0.02751746
-0.049052864
0.011365907
-0.0029910284
-0.023928227
-0.025124637
0.005383851
-0.07238289
-0.01375873
-0.0029910284
-0.042472597
-0.00418744
-0.020338994
0.0029910284
-0.023330022
-0.04426722
0.006580262
-0.019740788
0.011365907
0.0
-0.026919257
0.0071784677
-0.011365907
-0.01794617
-0.010169497
-0.02751746
-0.03529413
-0.0071784677
-0.04426722
-0.050847482
-0.028115667
0.006580262
-0.020937199
-0.03589234
-0.0077766734
0.0
-0.014955141
-0.0035892338
-0.019740788
0.025124637
0.019740788
0.01674976
-0.03589234
0.0023928226
-0.005383851
-0.0017946169
0.028115667
-0.029312078
0.0071784677
-0.02213361
-0.01375873
0.024526432
-0.04546363
0.00418744
-0.023928227
-0.020338994
-0.04725825
-0.039481577
-0.008973085
0.014356935
-0.0023928226
-0.015553347
-0.03529413
-0.014955141
-0.010169497
-0.03529413
-0.03230311
0.025124637
-0.037686955
-0.026321048
0.014356935
0.00418744
-0.00837488
-0.018544376
-0.02751746
-0.0047856453
0.02213361
-0.010169497
-0.029910281
-0.008973085
-0.037686955
-0.04127619
-0.031106694
-0.056829542
-0.02871387
-0.04426722
-0.009571291
-0.020937199
-0.023928227
-0.040677987
0.01674976
0.024526432
0.0047856453
0.020338994
-0.023330022
-0.0071784677
0.0047856453
-0.023928227
0.014356935
-0.026919257
-0.011964113
-0.03230311
-0.006580262
-0.02213361
-0.01674976
0.02751746
-0.00059820566
-0.04426722
-0.02213361
-0.014356935
-0.017347965
-0.07477571
0.006580262
-0.017347965
-0.04127619
-0.02213361
-0.03708875
0.0059820567
-0.0059820567
0.029312078
0.014955141
-0.0077766734
-0.0077766734
0.023928227
-0.02751746
0.005383851
0.0071784677
-0.040677987
-0.04546363
-0.03290131
0.015553347
0.015553347
0.0
0.011964113
-0.029910281
-0.020937199
-0.049052864
-0.021535404
-0.03050849
-0.058624156
-0.042472597
-0.020338994
-0.03589234
0.015553347
-0.020937199
0.00059820566
-0.014955141
-0.009571291
0.00059820566
0.0047856453
-0.017347965
-0.0077766734
0.00418744
-0.029312078
-0.03050849
-0.037686955
-0.028115667
-0.024526432
-0.01794617
0.0017946169
0.00837488
-0.00418744
-0.012562319
-0.0023928226
-0.00837488
-0.020937199
0.0059820567
-0.02751746
0.011964113
-0.0017946169
-0.03888337
-0.047856454
-0.026321048
-0.022731815
-0.0047856453
-0.03230311
-0.03708875
-0.021535404
0.00418744
-0.03529413
-0.025722845
-0.019142581
0.0035892338
0.03349952
-0.038285162
-0.046660043
-0.054436717
-0.019740788
-0.024526432
-0.0035892338
-0.008973085
0.015553347
0.03589234
0.0017946169
-0.038285162
0.0017946169
-0.0035892338
-0.00418744
-0.03469593
-0.02213361
-0.025124637
0.017347965
-0.03290131
-0.029910281
0.0035892338
-0.025124637
-0.019740788
-0.039481577
-0.047856454
-0.015553347
0.03529413
0.014356935
0.019142581
-0.014356935
-0.0035892338
0.03708875
0.00059820566
-0.0035892338
-0.043669015
-0.015553347
-0.01674976
-0.011964113
-0.029312078
0.05144569
-0.0035892338
-0.022731815
0.018544376
0.010169497
-0.015553347
0.020338994
-0.021535404
0.03529413
-0.0047856453
-0.012562319
0.018544376
-0.019740788
-0.03050849
-0.01375873
0.018544376
-0.010767702
-0.029312078
-0.03529413
-0.014955141
-0.029312078
0.00418744
-0.04486543
-0.0077766734
-0.03050849
-0.040079776
0.0017946169
-0.0011964113
-0.0029910284
-0.04127619
-0.02213361
-0.036490545
0.023928227
-0.049052864
0.03290131
0.009571291
-0.029910281
-0.021535404
-0.023330022
0.025124637
-0.006580262
0.01794617
-0.0077766734
-0.013160524
-0.012562319
-0.023330022
-0.012562319
-0.03469593
-0.053838514
-0.014955141
-0.025124637
-0.05503492
0.03469593
0.014955141
0.02871387
-0.04546363
0.03290131
0.006580262
-0.03349952
-0.020338994
0.0047856453
-0.026919257
0.038285162
0.022731815
0.043669015
-0.042472597
0.04725825
0.03290131
0.050249275
-0.015553347
0.0011964113
-0.0017946169
-0.010169497
-0.03708875
-0.020937199
0.02751746
-0.025722845
-0.060418773
-0.048454657
0.022731815
-0.0023928226
0.00059820566
-0.029910281
0.02751746
-0.00837488
-0.053240303
-0.017347965
-0.010767702
-0.019142581
0.017347965
0.040677987
-0.02213361
-0.014955141
-0.013160524
-0.04127619
0.016151555
0.005383851
-0.02213361
-0.053838514
-0.013160524
-0.04546363
-0.050249275
-0.025124637
-0.005383851
-0.020338994
0.012562319
-0.0023928226
-0.0317049
-0.026919257
-0.017347965
-0.03290131
-0.08075776
-0.014955141
-0.0059820567
-0.026919257
-0.017347965
0.0029910284
0.022731815
-0.025124637
-0.01794617
-0.020338994
0.014356935
-0.055633124
-0.011964113
-0.03708875
-0.03050849
0.038285162
0.01375873
-0.029910281
-0.061615184
-0.06699904
-0.04725825
-0.010767702
-0.0071784677
-0.00059820566
-0.0317049
-0.03050849
0.019142581
-0.05144569
-0.011365907
-0.013160524
0.010169497
-0.023330022
0.010169497
-0.0011964113
-0.028115667
-0.042472597
-0.009571291
-0.01375873
-0.0077766734
-0.036490545
-0.03589234
0.00059820566
-0.03529413
-0.021535404
-0.04725825
0.0017946169
0.056829542
-0.01794617
-0.060418773
0.00837488
0.019142581
0.0035892338
-0.0077766734
-0.0059820567
-0.0017946169
0.01794617
0.0
-0.03050849
0.020937199
-0.029312078
-0.01375873
-0.031106694
-0.036490545
0.0017946169
-0.014955141
-0.028115667
-0.028115667
-0.010169497
-0.0059820567
-0.029910281
-0.019740788
-0.04725825
-0.02751746
-0.0317049
0.006580262
-0.0029910284
0.00418744
0.0023928226
-0.031106694
-0.014955141
-0.023330022
-0.019142581
-0.04426722
-0.021535404
-0.019740788
0.01674976
-0.0035892338
-0.008973085
-0.01375873
-0.01674976
-0.026919257
-0.005383851
-0.020338994
0.0023928226
-0.053838514
-0.053240303
-0.011964113
-0.0077766734
0.04426722
-0.011365907
-0.03050849
0.0047856453
-0.04546363
-0.023928227
-0.008973085
-0.008973085
-0.03050849
-0.023330022
-0.005383851
0.011964113
-0.05144569
-0.0317049
-0.025124637
0.019740788
-0.025722845
-0.0017946169
-0.07058826
-0.05742774
-0.018544376
-0.0077766734
0.0
-0.020338994
-0.0035892338
-0.008973085
-0.023928227
-0.03589234
0.017347965
0.0071784677
-0.0077766734
-0.040079776
-0.019740788
0.017347965
-0.020937199
0.0071784677
0.00059820566
-0.0071784677
0.02213361
0.0029910284
-0.00418744
-0.019740788
-0.046660043
0.025124637
-0.010767702
0.009571291
-0.03230311
-0.01674976
-0.029312078
-0.046061836
-0.023330022
-0.0047856453
-0.03290131
0.0077766734
-0.0059820567
-0.014356935
-0.023330022
-0.01375873
-0.0059820567
0.021535404
0.014356935
-0.046660043
-0.025722845
-0.0017946169
-0.03888337
-0.014955141
-0.016151555
-0.016151555
-0.049651075
-0.01674976
-0.03290131
-0.07896315
-0.028115667
-0.026321048
-0.038285162
-0.016151555
-0.053838514
0.009571291
-0.053838514
-0.023928227
-0.026321048
-0.016151555
-0.011964113
-0.03708875
-0.014955141
0.0035892338
-0.03529413
-0.0035892338
-0.021535404
-0.01674976
0.0317049
-0.0011964113
-0.0059820567
-0.0011964113
-0.017347965
-0.012562319
-0.0017946169
0.04486543
-0.013160524
0.0017946169
-0.010169497
-0.025124637
-0.03349952
-0.024526432
-0.011365907
0.009571291
-0.00837488
-0.023330022
-0.024526432
-0.015553347
0.016151555
-0.019740788
-0.012562319
-0.043669015
-0.037686955
-0.04426722
-0.025722845
-0.03290131
0.031106694
-0.028115667
-0.018544376
0.026321048
0.011964113
0.015553347
0.014356935
-0.028115667
0.019142581
0.00418744
-0.026321048
0.03349952
-0.01375873
-0.010169497
0.01674976
0.010169497
-0.005383851
-0.029312078
0.029910281
-0.03589234
-0.00059820566
-0.010169497
-0.03230311
-0.014356935
0.03050849
-0.01674976
0.0
-0.01375873
-0.019740788
-0.02871387
0.029312078
-0.0071784677
-0.020937199
-0.022731815
-0.04426722
0.0017946169
-0.016151555
-0.0317049
-0.01674976
-0.005383851
-0.050249275
-0.031106694
-0.041874398
0.018544376
-0.040677987
0.018544376
-0.014955141
-0.015553347
-0.005383851
-0.031106694
-0.055633124
0.005383851
-0.040079776
-0.03230311
-0.06819544
-0.011964113
-0.03409772
-0.028115667
-0.01794617
-0.005383851
-0.036490545
-0.039481577
-0.006580262
-0.020937199
-0.0035892338
0.0029910284
0.029312078
0.029910281
0.010767702
-0.0071784677
0.0071784677
-0.01674976
0.014356935
0.023928227
-0.026919257
0.01375873
0.02751746
-0.061615184
-0.0071784677
-0.037686955
-0.049651075
0.028115667
-0.010767702
-0.012562319
-0.0029910284
0.00059820566
-0.025124637
-0.018544376
0.005383851
-0.012562319
-0.03290131
0.016151555
-0.008973085
-0.021535404
-0.022731815
-0.0029910284
-0.006580262
-0.0035892338
-0.024526432
-0.019740788
0.011964113
-0.024526432
0.012562319
-0.014356935
0.006580262
-0.0059820567
0.025722845
0.0017946169
0.026321048
0.0017946169
-0.013160524
-0.029312078
-0.0029910284
-0.019740788
0.00059820566
0.018544376
0.037686955
0.0317049
0.0071784677
-0.008973085
-0.011964113
-0.029910281
-0.042472597
-0.022731815
0.024526432
-0.0017946169
-0.010169497
0.023330022
0.02751746
-0.0071784677
0.03409772
-0.04127619
-0.031106694
-0.028115667
-0.040677987
-0.03230311
-0.011964113
0.0035892338
0.03708875
-0.053240303
0.018544376
0.010169497
-0.040079776
-0.011365907
-0.005383851
0.0035892338
-0.04486543
0.0
-0.022731815
-0.054436717
-0.011365907
-0.023330022
-0.03409772
-0.029910281
0.00837488
0.0077766734
-0.008973085
-0.020937199
-0.020937199
-0.023928227
0.0077766734
-0.015553347
0.009571291
-0.012562319
-0.08554341
-0.037686955
-0.023330022
-0.013160524
0.008973085
0.0035892338
0.0011964113
-0.03589234
-0.01674976
-0.013160524
-0.026321048
-0.0741775
0.041874398
0.0029910284
-0.015553347
-0.039481577
0.010767702
-0.006580262
0.0077766734
-0.03529413
-0.041874398
-0.025722845
-0.03708875
-0.010767702
-0.0011964113
-0.031106694
0.0077766734
0.020338994
-0.03529413
-0.029910281
-0.03349952
0.0023928226
0.018544376
-0.020338994
0.019740788
-0.023928227
-0.048454657
-0.009571291
-0.018544376
-0.04725825
0.0071784677
-0.0317049
-0.024526432
0.0023928226
-0.021535404
0.03349952
-0.026919257
0.02213361
0.03230311
-0.0059820567
0.0077766734
-0.00059820566
0.016151555
-0.02871387
-0.050249275
-0.084347
-0.03708875
-0.040677987
-0.025124637
0.0029910284
-0.043070808
0.023330022
-0.03050849
0.011365907
0.01674976
-0.011964113
-0.026919257
-0.019142581
-0.005383851
0.03050849
-0.025124637
0.00059820566
-0.019142581
-0.050249275
-0.03708875
0.0011964113
-0.005383851
-0.014356935
-0.00418744
-0.019740788
-0.014955141
-0.08195418
-0.038285162
-0.0035892338
-0.02213361
-0.026919257
0.0
0.022731815
-0.02871387
-0.050249275
-0.0023928226
-0.059820563
-0.029910281
-0.021535404
-0.023928227
0.015553347
-0.012562319
0.04426722
-0.010767702
-0.03230311
0.011365907
-0.03589234
-0.025722845
-0.029312078
0.009571291
0.005383851
-0.02213361
-0.011365907
-0.016151555
0.021535404
-0.03888337
-0.029312078
-0.043070808
-0.009571291
0.011964113
-0.0023928226
0.01375873
-0.019142581
0.008973085
0.010169497
0.011964113
-0.0029910284
0.0071784677
-0.0317049
0.014955141
0.03349952
-0.010169497
-0.029910281
-0.02751746
0.0059820567
0.023330022
0.03290131
-0.013160524
-0.029910281
-0.015553347
-0.024526432
0.013160524
-0.04426722
-0.03589234
0.0017946169
0.024526432
0.0071784677
-0.026919257
-0.012562319
-0.0071784677
0.01674976
-0.03230311
-0.066400826
-0.015553347
-0.040079776
0.006580262
0.00837488
-0.015553347
0.015553347
-0.020338994
-0.024526432
0.00837488
0.022731815
-0.036490545
0.011365907
-0.025722845
0.0023928226
0.0023928226
0.0059820567
-0.020937199
0.006580262
-0.024526432
0.0071784677
-0.047856454
-0.029312078
0.03589234
-0.011964113
-0.03529413
0.024526432
0.0017946169
-0.0077766734
0.02871387
0.061615184
-0.0059820567
-0.020338994
-0.04486543
-0.02751746
-0.16091733
-0.20757736
-0.08793623
-0.42173502
-0.5551349
0.10707881
0.7429714
0.13878372
0.18125632
-0.0023928226
-0.06879365
-0.08255238
-0.23210381
-0.2231307
-0.09870394
-0.19920248
-0.30448666
-0.33559337
0.10049855
-0.1986043
-0.1477568
-0.121435754
-0.1579263
-0.20279174
-0.21595225
-0.2207379
-0.21535406
-0.26141587
-0.14895321
-0.15672989
-0.2512464
-0.3176472
-0.34396827
-0.401396
-0.32961133
-0.09212367
2.7326035
-0.41455653
0.8452646
0.7501499
0.45463634
0.19082761
0.043070808
0.13818552
0.12861422
0.13998014
0.103489585
0.24047866
-0.08733803
-0.059222363
0.2542374
-0.12323037
0.3714857
0.01794617
0.26620153
0.0628116
-0.01794617
-0.1262214
-0.3786642
-0.24227329
0.14536397
-0.040677987
-0.14297116
-0.14955142
-0.17706887
-0.20458633
-0.33260235
-0.13040884
-0.16271195
-0.20219351
-0.13280165
-0.12981063
-0.07178468
-0.028115667
-0.04546363
-0.060418773
-0.07716853
-0.019740788
0.00837488
0.005383851
-0.0071784677
-0.054436717
-0.03290131
-0.078364946
-0.055633124
-0.10468599
-0.13339986
-0.15074782
-0.16570295
-0.19980069
-0.21056838
-0.1896312
-0.20997019
-0.2434697
-0.23509482
-0.24227329
-0.2207379
-0.19680966
-0.14895321
-0.14356937
1.3256236
0.07058826
0.0035892338
0.51086766
-0.040677987
-0.021535404
0.0035892338
0.025124637
0.03888337
0.08315059
0.10767703
0.061615184
0.053838514
0.02871387
-0.06520442
-0.029910281
-0.025722845
0.012562319
0.009571291
0.05503492
0.10109676
0.11724831
0.13160524
0.15553348
0.12382857
0.15732808
0.15134604
0.17826529
0.16689938
0.14297116
0.13339986
0.12023933
0.12382857
0.061615184
0.015553347
0.026321048
-0.005383851
-0.0741775
-0.14476578
-0.16271195
-0.16929221
-0.20877378
-0.2841477
-0.27457643
-0.2338984
-0.22013968
-0.19621146
-0.17228323
-0.15373886
-0.10229316
-0.4935197
0.21714865
0.06819544
0.09272188
-0.009571291
0.24466611
0.023330022
0.1058824
-0.0011964113
-0.12263216
0.050249275
-0.08733803
-0.17407784
-0.1680958
-0.124426775
-0.12203396
-0.049651075
-0.09092726
-0.049651075
-0.040079776
-0.06580262
-0.052642096
-0.09810573
-0.042472597
-0.081355974
-0.148355
-0.12502499
-0.14536397
-0.1477568
-0.2219343
-0.084945194
-0.062213387
-0.15254246
-0.13459629
-0.013160524
0.062213387
0.08673982
0.037686955
0.06819544
0.015553347
-0.020338994
-0.06580262
-0.086141616
-0.21475583
-0.21954149
-0.19322044
-0.19980069
-0.1579263
-0.106480606
-0.023928227
0.024526432
0.1477568
0.15613168
0.11186446
0.11006984
0.10109676
0.050847482
0.09272188
0.11306088
0.12203396
0.124426775
0.09272188
0.10049855
0.058624156
-0.00418744
0.0059820567
-0.025124637
-0.09391828
-0.0317049
-0.055633124
-0.066400826
-0.108873434
-0.0951147
-0.071186475
-0.041874398
0.00837488
0.049052864
0.04546363
0.07537391
0.021535404
0.006580262
-0.052642096
-0.03529413
-0.04127619
-0.058624156
-0.019142581
0.061615184
0.06699904
0.06460622
0.096909314
0.08973086
0.076570325
0.07298109
0.042472597
0.03888337
0.02213361
0.059820563
0.046660043
0.061615184
0.041874398
0.03589234
-0.037686955
-0.0951147
-0.13280165
-0.2213361
-0.24586253
-0.27158535
-0.40019962
-0.3906283
-0.45583272
-0.40498522
-0.47676992
-0.28115666
-0.096311115
0.12263216
-0.018544376
-0.16091733
-0.07956135
-0.01674976
0.06699904
-0.054436717
-0.091525465
0.015553347
0.10109676
0.06460622
0.16390836
0.12921244
0.17826529
0.09870394
0.0017946169
-0.021535404
-0.08255238
-0.050249275
-0.16749759
-0.13818552
-0.109471634
-0.071186475
-0.10049855
-0.049052864
0.038285162
0.0628116
0.07477571
0.03230311
0.029910281
0.043669015
0.12083755
0.078364946
-0.106480606
-0.00837488
-0.025722845
0.020937199
-0.029910281
-0.0023928226
0.0077766734
-0.012562319
0.01794617
-0.03290131
-0.11306088
-0.037686955
0.023330022
0.03529413
-0.024526432
-0.039481577
-0.056231335
-0.005383851
-0.017347965
-0.114257276
-0.0951147
-0.13160524
-0.0735793
-0.03589234
-0.029312078
0.026919257
0.061615184
0.058624156
0.1268196
0.09212367
0.06999007
0.019740788
0.10707881
-0.22372892
-0.18245272
-0.06699904
-0.05742774
-0.07537391
-0.05742774
-0.059222363
-0.03529413
0.037686955
0.041874398
-0.055633124
-0.06580262
-0.059222363
-0.08255238
0.022731815
-0.041874398
-0.059222363
0.0
0.019142581
-0.01794617
0.021535404
-0.02871387
-0.016151555
-0.03050849
-0.008973085
-0.025722845
-0.0029910284
0.02213361
-0.042472597
0.01674976
0.0017946169
0.026321048
-0.019740788
-0.0023928226
-0.013160524
-0.0059820567
-0.0628116
-0.03230311
0.0
-0.00059820566
0.005383851
-0.028115667
-0.02213361
0.0059820567
0.006580262
-0.02213361
0.017347965
0.014356935
0.005383851
-0.03469593
-0.0077766734
0.018544376
-0.025124637
-0.023330022
0.023928227
0.01375873
-0.03409772
-0.014356935
-0.04127619
-0.006580262
-0.023330022
-0.0077766734
-0.005383851
0.0
0.025124637
0.03050849
0.0029910284
-0.008973085
-0.014955141
-0.049651075
-0.022731815
-0.022731815
0.00418744
-0.03529413
-0.014955141
0.020338994
-0.11246267
0.049052864
0.30089745
-0.14536397
-0.101694964
-0.006580262
0.07776674
0.04546363
-0.058624156
-0.02871387
-0.024526432
-0.020338994
-0.021535404
-0.07477571
-0.08195418
0.019740788
-0.046660043
-0.00418744
0.04127619
-0.043070808
0.12023933
-0.119042926
-0.011365907
-0.031106694
-0.060418773
0.01674976
0.010767702
-0.052642096
-0.029312078
0.03888337
0.02213361
0.03230311
0.14955142
-0.38464624
-0.026919257
-0.15134604
-0.41036907
-0.2644069
-0.24825536
0.28893334
0.51086766
-0.056829542
-0.10049855
0.019740788
0.049651075
0.078364946
0.15732808
0.049052864
-0.021535404
0.42053857
0.11006984
-0.14297116
-0.2117648
-0.38344985
-0.28773692
-0.083748795
-0.01674976
-0.008973085
0.01794617
-0.025722845
-0.020338994
-0.052642096
0.10289138
-0.03708875
0.01674976
-0.0029910284
-0.0017946169
-0.029312078
0.020338994
-0.060418773
0.0071784677
-0.013160524
0.010767702
-0.053838514
0.0077766734
-0.01794617
0.03050849
-0.04546363
-0.108873434
-0.04546363
0.06460622
-0.0011964113
-0.0077766734
-0.00837488
-0.040079776
-0.04426722
-0.006580262
-0.039481577
-0.01674976
-0.046660043
-0.011365907
0.020338994
-0.02871387
0.0017946169
-0.023330022
-0.022731815
0.020338994
0.038285162
0.04426722
0.023330022
-0.022731815
-0.015553347
0.01375873
-0.03589234
-0.008973085
-0.064008005
-0.021535404
-0.0035892338
-0.0023928226
-0.008973085
-0.041874398
0.016151555
-0.012562319
-0.050847482
0.025124637
-0.024526432
-0.010169497
0.006580262
-0.025124637
-0.025124637
-0.0029910284
-0.04486543
-0.0317049
-0.020937199
0.014356935
0.028115667
-0.01794617
0.00837488
-0.009571291
-0.023330022
-0.058025952
-0.0017946169
-0.029312078
-0.023330022
-0.023928227
0.059222363
0.017347965
-0.0317049
-0.026919257
0.017347965
-0.036490545
-0.019740788
-0.016151555
0.00837488
-0.021535404
-0.0011964113
0.013160524
-0.0059820567
0.026321048
0.019142581
-0.04725825
0.0
-0.025722845
-0.026919257
-0.03290131
-0.07956135
0.19202402
-0.18664017
0.20697917
0.020338994
-0.17347965
-0.084347
-0.0059820567
0.009571291
-0.0023928226
0.10289138
0.1268196
0.24227329
0.51026946
0.57607204
0.49232325
0.31226337
-0.16929221
-0.73100734
-0.8045866
-0.5952146
-0.16450654
-0.024526432
0.0077766734
0.017347965
0.0
-0.07178468
-0.029910281
-0.026919257
0.029910281
-0.028115667
-0.026321048
-0.021535404
-0.00418744
-0.020338994
-0.01794617
0.0
-0.029312078
-0.0317049
-0.089132644
-0.15972091
-0.24646074
-0.19202402
-0.096909314
-0.10229316
0.20638095
0.22552353
0.24646074
0.09870394
0.019142581
-0.05742774
-0.019740788
-0.020338994
-0.029910281
0.010169497
-0.05742774
-0.018544376
0.029312078
-0.04546363
-0.042472597
-0.024526432
-0.02751746
-0.060418773
-0.0011964113
-0.019142581
0.01375873
0.018544376
-0.026321048
-0.026919257
-0.06759725
0.03708875
-0.03050849
-0.020937199
-0.0071784677
0.0035892338
-0.020937199
0.022731815
-0.0029910284
0.043070808
0.0059820567
0.08793623
0.08973086
0.16749759
0.28893334
0.232702
0.13220344
0.17288144
0.16989039
0.19202402
0.11665011
-0.28534412
-0.019740788
-0.18245272
-0.050249275
-0.061615184
-0.07776674
-0.25663024
-0.30687952
-0.32303104
-0.33858442
-0.38644087
-0.44027936
-0.378066
-0.40558347
-0.5659026
0.60059845
-0.9505488
1.0139586
-0.5198407
0.43848476
-0.189033
0.22671995
0.49112687
0.35593238
0.0047856453
0.2644069
0.16689938
-0.07298109
0.04486543
0.025124637
-0.0077766734
-0.03529413
-0.03050849
0.03708875
0.0047856453
-0.02213361
-0.046660043
-0.02751746
-0.023330022
0.006580262
-0.025124637
0.01674976
-0.021535404
0.0077766734
0.03409772
0.005383851
-0.08793623
0.02751746
0.11186446
0.091525465
0.1256232
0.11306088
0.10229316
0.2219343
0.15553348
-0.059222363
-0.050847482
-0.01674976
-0.0047856453
-0.1986043
-0.024526432
-0.1579263
-0.29910284
-0.18424734
-0.019740788
-0.16749759
-0.0071784677
0.019740788
0.0
0.011365907
-0.1896312
0.09391828
-0.048454657
-0.047856454
-0.0735793
-0.040677987
-0.08075776
-0.00418744
-0.03230311
0.0047856453
-0.055633124
0.078364946
-0.17228323
0.040079776
-0.10049855
-0.046061836
-0.046660043
-0.029312078
-0.09391828
0.13339986
0.124426775
-0.009571291
-0.052043896
-0.020937199
-0.008973085
-0.04127619
0.020338994
0.047856454
-0.00418744
-0.04725825
-0.09930215
0.03708875
0.043669015
-0.022731815
-0.040079776
0.00837488
-0.03529413
-0.046061836
-0.07477571
-0.049052864
0.0
-0.0059820567
-0.01674976
0.011964113
0.047856454
0.047856454
0.08195418
0.040677987
0.25663024
-0.019142581
0.10827523
0.22731817
0.47736815
0.14596218
0.19980069
-0.11545369
0.21296121
0.02213361
0.37507495
-0.41036907
-0.19740789
-0.24047866
-0.28354946
-0.2225325
-0.19800608
-0.2213361
-0.19501504
-0.038285162
0.03349952
0.06101698
0.22013968
-0.4564309
-0.168694
-0.18723837
-0.31944183
0.012562319
-0.109471634
-0.059222363
0.10707881
0.016151555
-0.052642096
-0.01375873
0.055633124
-0.025722845
0.018544376
-0.00059820566
0.1058824
0.1375873
0.189033
0.01674976
0.08673982
-0.1262214
-0.28354946
-0.27637103
-0.06819544
-0.09391828
-0.05742774
0.029312078
-0.010169497
0.016151555
0.0077766734
-0.02213361
0.03290131
-0.04127619
-0.00418744
-0.024526432
-0.043669015
0.03708875
0.025722845
-0.031106694
0.0047856453
-0.03469593
-0.022731815
-0.064008005
-0.05742774
-0.014356935
-0.018544376
-0.006580262
-0.0035892338
0.018544376
-0.023330022
-0.026919257
0.0
0.006580262
-0.00418744
-0.025124637
-0.015553347
0.006580262
-0.025124637
-0.023330022
0.0011964113
-0.019142581
-0.015553347
-0.011365907
-0.1262214
-0.22013968
-0.16749759
-0.24107689
0.2973082
-0.88594264
-0.37208393
0.41635117
1.3800606
-0.7046863
-0.753141
-0.58624154
-0.16271195
-0.4959125
-0.35413775
0.26859432
1.0606186
0.9068798
0.6735795
0.27936202
0.35473597
-0.30029923
-0.6011967
-0.5030909
-0.7262217
-0.28713873
-0.13399808
-0.3469593
-0.46600223
-0.5623133
-0.9086744
-0.0951147
0.07178468
0.84646106
0.57128644
-0.24825536
0.2644069
1.3525431
0.46839505
0.036490545
-0.050847482
-0.12861422
-0.15254246
-0.04725825
-0.019740788
-0.017347965
0.0071784677
0.018544376
0.0035892338
0.06879365
0.05503492
0.06520442
0.12981063
0.18245272
0.34157544
0.09990034
0.119641125
-0.058025952
-0.09032906
-0.04486543
-0.1268196
-0.12921244
-0.0047856453
-0.15493526
-0.14955142
-0.108873434
-0.09930215
0.050847482
0.03050849
0.109471634
0.020338994
-0.148355
-0.028115667
-0.14297116
-0.3272185
-0.46241295
-0.050847482
-0.041874398
-0.018544376
0.07058826
0.049052864
0.20518453
-0.07956135
-0.15613168
-0.11724831
-0.12981063
-0.14237295
-0.16390836
-0.08733803
0.0071784677
0.010767702
-0.025124637
-0.011365907
-0.011365907
0.017347965
-0.028115667
-0.00418744
-0.028115667
0.014356935
0.026919257
-0.03050849
-0.056829542
-0.048454657
-0.09571291
0.0011964113
0.018544376
0.010767702
-0.005383851
0.019740788
-0.00059820566
-0.039481577
0.028115667
0.011964113
0.0023928226
-0.010767702
-0.02213361
-0.041874398
-0.050847482
-0.056231335
-0.08733803
-0.09990034
-0.09870394
-0.010767702
-0.029910281
0.026919257
0.025722845
0.06580262
0.029910281
0.09750752
0.006580262
-0.014955141
-0.036490545
-0.012562319
-0.03888337
-0.02871387
-0.03230311
0.025124637
-0.010169497
-0.020338994
-0.006580262
-0.029312078
-0.0029910284
0.024526432
-0.01375873
0.017347965
0.00837488
0.06580262
0.019142581
0.0023928226
-0.0071784677
0.006580262
0.011365907
-0.0029910284
-0.043669015
0.0023928226
-0.029910281
-0.04546363
-0.040677987
-0.024526432
-0.023330022
-0.017347965
0.01674976
-0.022731815
-0.020937199
-0.0047856453
-0.006580262
-0.037686955
-0.012562319
-0.0059820567
-0.01794617
-0.046660043
-0.025124637
-0.062213387
-0.00418744
-0.028115667
-0.017347965
-0.014955141
-0.0023928226
-0.015553347
-0.016151555
-0.009571291
-0.012562319
-0.016151555
-0.0047856453
0.014356935
-0.00837488
-0.019740788
0.0017946169
-0.0047856453
-0.0047856453
-0.010169497
-0.06101698
-0.06699904
0.031106694
0.00059820566
-0.010767702
0.018544376
0.0059820567
-0.0047856453
-0.0059820567
-0.025722845
0.012562319
0.009571291
0.019142581
-0.0017946169
0.00418744
0.008973085
-0.026919257
-0.047856454
-0.00837488
0.012562319
0.01794617
-0.0071784677
-0.029312078
-0.005383851
0.096909314
0.21954149
-0.0951147
-0.1585245
-0.066400826
-0.050847482
-0.040079776
-0.089132644
-0.054436717
-0.059222363
-0.053240303
0.08075776
-0.014955141
-0.026919257
-0.018544376
-0.03529413
-0.013160524
0.0077766734
-0.00418744
-0.019142581
-0.009571291
-0.017347965
0.011964113
0.022731815
-0.010767702
0.015553347
-0.038285162
-0.037686955
0.00059820566
-0.055633124
0.106480606
0.038285162
0.052043896
-0.2231307
0.09212367
0.11246267
-0.00837488
-0.053838514
0.017347965
0.13160524
0.13579267
0.15373886
0.27278176
0.18245272
0.1274178
-0.04127619
-0.18664017
-0.22432712
-0.28773692
-0.31944183
-0.29072794
0.06101698
-0.02871387
-0.016151555
-0.021535404
0.025124637
-0.0077766734
-0.0011964113
-0.03230311
-0.026321048
0.04725825
-0.021535404
0.01674976
0.011365907
-0.03469593
0.016151555
-0.09930215
-0.038285162
-0.009571291
-0.055633124
-0.014356935
-0.096909314
0.0035892338
-0.04127619
-0.023330022
-0.022731815
-0.026919257
0.023330022
-0.0011964113
0.005383851
-0.014356935
-0.019740788
0.015553347
-0.040677987
0.009571291
0.009571291
-0.011365907
0.019142581
0.015553347
-0.03050849
0.0029910284
-0.038285162
0.023928227
-0.005383851
0.0047856453
-0.011964113
0.00837488
0.041874398
-0.025722845
0.03409772
0.013160524
-0.0023928226
0.0035892338
-0.016151555
-0.048454657
0.025124637
0.019142581
-0.0077766734
0.02751746
-0.024526432
0.0077766734
-0.020338994
-0.009571291
-0.04725825
-0.050249275
-0.04426722
0.008973085
-0.06520442
-0.029312078
0.029910281
0.041874398
-0.02213361
0.0011964113
-0.011964113
0.00059820566
-0.049651075
-0.08793623
-0.12083755
-0.21355942
-0.3098705
-0.35114673
-0.35234314
-0.3038885
-0.20997019
0.1375873
0.03349952
0.012562319
0.10109676
0.35114673
0.20997019
0.28235304
0.21296121
0.2315056
-0.03469593
0.0035892338
0.0071784677
-0.024526432
0.024526432
-0.0035892338
-0.014955141
0.005383851
-0.036490545
-0.01375873
-0.08015955
0.025124637
0.07477571
0.056231335
0.054436717
0.043669015
0.042472597
0.050249275
0.0059820567
-0.04127619
-0.036490545
-0.054436717
-0.07776674
-0.04546363
-0.0741775
-0.09212367
-0.03230311
-0.03349952
0.029910281
-0.023928227
-0.053838514
-0.008973085
-0.019740788
-0.07178468
-0.24646074
0.18185452
-0.00059820566
-0.04127619
-0.050847482
-0.0023928226
0.01375873
-0.016151555
0.0023928226
0.0029910284
0.0017946169
0.03349952
-0.011964113
-0.009571291
-0.0017946169
-0.017347965
0.016151555
0.019740788
0.0029910284
0.059222363
0.11485548
0.11724831
0.081355974
0.06520442
-0.043070808
-0.16749759
-0.13160524
-0.17766708
0.031106694
0.014356935
-0.014356935
0.0017946169
0.02213361
-0.053838514
-0.11246267
-0.09032906
-0.011964113
-0.025722845
-0.0059820567
0.043669015
0.10229316
0.054436717
0.043669015
-0.046660043
-0.05144569
-0.0071784677
-0.02871387
-0.15134604
-0.13040884
-0.16271195
-0.2338984
-0.23030919
-0.19800608
-0.086141616
0.17288144
0.06939186
0.11724831
0.16271195
0.121435754
0.09391828
0.13579267
0.058624156
0.01674976
-0.013160524
0.023330022
-0.005383851
-0.01375873
-0.012562319
-0.06699904
-0.075972125
-0.10289138
-0.04127619
0.01375873
0.10229316
-0.01375873
0.06759725
-0.04486543
-0.020338994
-0.046660043
-0.02213361
0.0
-0.026919257
0.026919257
-0.03708875
-0.018544376
-0.07477571
0.03529413
0.028115667
-0.020937199
0.02213361
-0.0077766734
0.013160524
0.01794617
-0.009571291
-0.0735793
-0.04725825
-0.053240303
-0.08733803
-0.096909314
-0.08733803
-0.06460622
-0.08733803
-0.06879365
-0.0634098
0.0077766734
-0.03290131
-0.024526432
-0.0317049
-0.014955141
0.025722845
0.091525465
0.046061836
0.06580262
0.08673982
0.054436717
0.055633124
0.042472597
0.096311115
-0.10468599
-0.16151552
-0.03708875
-0.056231335
0.058624156
0.040677987
-0.09212367
0.13938193
0.050847482
0.11724831
-0.12023933
-0.17108682
0.020338994
-0.06819544
-0.3822534
-0.5623133
-0.41814575
-0.36011982
0.03349952
-0.08973086
0.15194425
0.43549374
0.5670989
0.7405786
0.7758728
0.6999006
0.6831509
0.607777
0.11066805
-1.4117653
-2.1684957
-2.6321046
-0.74596244
0.39840496
0.6831509
0.7710871
0.4965107
1.6731813
0.21834506
-0.020937199
-0.8117651
-0.7812566
-1.695913
-1.5032908
-1.5978074
-1.0414761
-1.0241281
-0.9505488
-0.7848458
-0.66041905
-0.67178494
-0.6317052
-0.5551349
-0.53778684
-0.6149554
-0.5503492
4.4422755
2.00698
1.5379869
1.5750755
0.6945168
0.698106
0.5838487
0.20159532
-0.050847482
-0.42053857
-0.7746763
-0.6412764
-0.5880362
-0.695115
-0.7190432
-0.74117684
0.23030919
0.5982057
0.8745767
1.9962124
1.9585254
1.8933209
1.0097712
0.44985068
0.12981063
-0.060418773
-0.019740788
-0.03290131
-0.15134604
0.9762717
-0.32781672
0.24646074
0.108873434
0.2219343
0.49232325
-0.042472597
0.4743771
0.36430728
0.45463634
0.21535406
0.5186443
0.05742774
-0.17527428
0.799801
-0.18783656
0.006580262
-0.23808585
-0.19740789
-0.38344985
-0.28175488
-0.25842488
-0.32781672
-0.4325027
-0.3714857
-0.41694936
-0.51146585
-0.610768
-0.7483553
-0.8979067
-1.0737792
-1.049851
-0.8470592
-0.168694
-0.7962117
-0.32123646
-0.19800608
-0.09810573
-0.15672989
-0.4193422
-0.54855454
-0.5515457
-0.57846487
-0.54795635
-0.39361933
-0.2769692
-0.009571291
0.07238289
0.11006984
0.12861422
0.14895321
0.15553348
0.5814559
0.360718
0.016151555
0.04725825
-0.040079776
0.10767703
-0.109471634
-0.22671995
0.014356935
-0.03230311
0.31226337
0.43908298
-0.16331016
-0.28235304
-0.06101698
-0.26081768
0.19680966
-0.17587246
-0.02213361
0.01674976
-0.19202402
-0.2416751
0.39900318
-0.15613168
0.00418744
0.053240303
-0.17706887
-0.021535404
-0.04725825
0.16390836
0.059820563
0.4630112
0.57846487
0.33559337
0.6257231
0.6382854
0.4229314
0.3475575
0.26380873
0.57068825
0.64845496
0.38883367
0.24586253
0.043669015
-0.024526432
-0.10468599
0.09092726
0.31226337
0.50189453
0.22612175
0.30867413
0.3314059
0.42711884
0.33320057
0.5282156
0.7178469
0.4301099
0.32183465
0.25184458
0.28055847
-0.10289138
-0.29910284
-1.0959127
-1.8747765
-1.4380864
-1.0313065
-0.8632108
-0.5222336
-0.4935197
-0.44985068
-0.42652062
-0.13459629
-0.053838514
-0.12801601
0.11246267
0.14237295
0.108873434
-0.019142581
0.015553347
0.013160524
0.03290131
0.03529413
0.17467606
0.16630118
0.18604197
0.19322044
0.24047866
0.27996027
0.32961133
0.45463634
0.4743771
0.49950173
0.55274206
0.46899325
0.43848476
0.4462614
0.32243288
0.2721836
0.07776674
0.09930215
0.053838514
-0.062213387
-0.12861422
-0.1902294
-0.22851455
-0.25004998
-0.2841477
-0.2751746
-0.16989039
-0.13579267
-0.15553348
-0.27278176
-0.30807593
-0.38285163
-0.3206382
-0.37447673
-0.43130627
-0.45822555
-0.40498522
-0.604786
-0.47976094
-0.44865423
-0.3930211
-0.2865405
-0.06939186
0.22432712
0.4301099
0.442074
0.016151555
-0.34157544
-0.5796613
-0.7076773
-0.8075776
-0.79142606
-0.7405786
-0.5419743
-0.3571288
-0.26021945
-0.25962126
-0.28833514
-0.3272185
-0.31106696
-0.38883367
-0.38464624
-0.40677986
-0.36610186
-0.4019942
-0.37208393
-0.3930211
-0.39780676
-0.32602206
-0.33080775
-0.32123646
-0.33918262
-0.30807593
-0.32841492
-0.30029923
-0.31106696
-0.32602206
-0.32901308
-0.30448666
-0.27278176
-0.30209386
-0.31944183
-0.31106696
-0.39361933
-0.36430728
-0.3696911
-0.33020952
-0.59760743
-0.6017949
-0.4426722
-0.26919258
-0.25663024
-0.26380873
-0.32482567
-0.270389
-0.15014961
0.10408779
0.075972125
-0.0047856453
-0.16331016
-0.21655045
-0.23629124
-0.13459629
-0.2769692
-0.31345978
-0.15553348
0.0023928226
0.108873434
-0.07776674
-0.114257276
-0.21714865
-0.20937198
-0.17048861
-0.08315059
-0.17647067
-0.16570295
-0.337388
-0.45822555
-0.48155555
-0.6628118
-0.759123
-0.87637126
-0.863809
-0.7537391
-0.7142576
-0.7256235
-0.5766703
-0.5066802
-0.4019942
-0.24107689
-0.13818552
0.017347965
0.33678976
0.3487539
0.26321048
0.19142582
0.17168503
0.13100703
0.076570325
-0.23808585
-0.270389
-0.2542374
-0.22612175
-0.23509482
-0.33320057
-0.37088752
-0.4432704
-0.4301099
-0.29252258
-0.25543383
-0.19680966
-0.091525465
-0.023928227
-0.006580262
0.013160524
0.0047856453
0.00418744
-0.083748795
-0.16450654
-0.18843478
-0.34037903
-0.3074777
-0.2955136
-0.27936202
-0.2673979
-0.32602206
-0.40019962
-0.29252258
-0.27637103
-0.24945177
-0.30867413
-0.24406792
-0.08853444
-0.11485548
-0.13100703
-0.17527428
-0.19501504
-0.1274178
-0.07477571
-0.066400826
-0.08075776
-0.06759725
-0.06520442
-0.043669015
-0.07896315
-0.09212367
-0.08554341
-0.1256232
-0.12323037
-0.14656039
-0.11186446
-0.07298109
-0.106480606
-0.09571291
-0.103489585
-0.071186475
-0.017347965
-0.006580262
-0.10229316
-0.1274178
-0.18484555
-0.12801601
-0.1256232
-0.084347
-0.06699904
-0.07956135
-0.11126625
-0.12502499
-0.09092726
-0.062213387
-0.06101698
-0.060418773
-0.053240303
-0.08015955
-0.037686955
-0.0735793
-0.03589234
0.0029910284
0.0047856453
-0.03050849
-0.042472597
-0.05144569
-0.03888337
-0.08554341
-0.12801601
-0.09391828
-0.10109676
-0.018544376
-0.32841492
-0.57248276
-0.7645068
-0.7848458
-0.7758728
-0.587438
-0.2973082
-0.11784652
0.059820563
3.356532
-0.4677968
1.9549361
1.6211374
1.6097715
2.0901306
1.2981062
0.6753742
-0.018544376
-0.18843478
-0.29970104
-0.619741
-0.4725825
-0.85483587
-0.41336012
0.091525465
-1.2436695
-0.03050849
-0.41635117
-0.18783656
-0.10767703
-0.25184458
-0.17647067
0.22851455
0.26081768
0.042472597
-0.03409772
-0.6729814
-0.7710871
-0.8279167
0.14536397
-0.12861422
0.0023928226
-0.01375873
-0.043070808
-0.038285162
0.01375873
-0.011365907
-0.0059820567
-0.04127619
-0.0017946169
0.046660043
0.0077766734
-0.03050849
-0.04725825
-0.02213361
-0.06999007
-0.08793623
-0.11485548
-0.13818552
-0.12323037
-0.039481577
0.03230311
0.124426775
0.12502499
0.108873434
-0.023330022
0.005383851
-0.03708875
0.021535404
0.071186475
-0.023330022
-0.081355974
0.00418744
0.0023928226
0.02751746
-0.03529413
-0.020937199
-0.06819544
-0.009571291
0.0011964113
-0.011365907
0.03708875
-0.03708875
-0.0035892338
-0.019740788
-0.012562319
-0.062213387
-0.04426722
-0.05144569
-0.037686955
0.04546363
0.058624156
-0.04486543
-0.03888337
-0.023330022
-0.06879365
0.017347965
-0.03529413
-0.017347965
-0.055633124
0.011964113
0.0
-0.017347965
-0.046660043
0.00059820566
-0.02871387
0.041874398
0.055633124
-0.09272188
0.03708875
0.012562319
0.09391828
-0.005383851
-0.0077766734
0.060418773
0.0011964113
-0.0317049
0.07238289
0.043669015
-0.0317049
-0.27756745
-0.1680958
0.023330022
-0.020937199
-0.023330022
-0.0023928226
0.006580262
-0.019142581
-0.038285162
-0.0628116
-0.03050849
0.010169497
-0.048454657
-0.0047856453
-0.052642096
-0.058624156
0.019740788
0.049651075
-0.014955141
-0.028115667
-0.026919257
-0.00418744
-0.03469593
0.03708875
0.023928227
-0.0029910284
-0.12263216
-0.023330022
-0.019740788
-0.0071784677
0.037686955
0.058624156
0.10229316
0.08255238
0.08673982
0.17407784
0.5802595
0.18664017
0.03529413
-0.08315059
0.30568308
0.25543383
0.7830512
0.54915285
-0.14955142
-0.09571291
0.1351945
0.086141616
-0.07776674
-0.3254239
-0.27756745
-0.10049855
-0.19381863
-0.22731817
-0.37328035
-0.3900301
-0.6215357
-0.57367927
-0.20518453
-0.0628116
-0.018544376
-0.053240303
0.07238289
-0.08315059
0.011964113
0.0634098
0.049651075
-0.050847482
-0.11186446
-0.07238289
-0.09930215
-0.0077766734
0.013160524
-0.02871387
0.07178468
-0.023928227
-0.0017946169
-0.05503492
-0.020937199
-0.0023928226
0.03589234
0.010169497
0.029910281
-0.008973085
-0.081355974
-0.015553347
-0.0029910284
0.0071784677
0.006580262
0.014356935
-0.01674976
-0.013160524
0.008973085
-0.019740788
-0.0023928226
-0.009571291
-0.026919257
-0.011964113
-0.0011964113
0.00418744
-0.013160524
0.0011964113
-0.049052864
-0.02871387
-0.050847482
0.0035892338
-0.019740788
0.021535404
-0.00059820566
-0.02213361
-0.0035892338
0.014356935
-0.042472597
-0.013160524
-0.03050849
-0.023330022
-0.01375873
-0.0317049
-0.022731815
-0.03409772
0.00418744
0.015553347
0.013160524
-0.01375873
-0.03290131
-0.019740788
-0.02751746
-0.011365907
-0.03888337
0.029312078
-0.0011964113
-0.00059820566
-0.024526432
-0.008973085
-0.019740788
0.010169497
-0.02213361
0.026321048
-0.03469593
0.13579267
0.15194425
0.042472597
0.0029910284
-0.043669015
0.101694964
0.037686955
0.013160524
0.005383851
0.04127619
0.03230311
-0.05742774
-0.119042926
-0.01674976
-0.017347965
0.0017946169
-0.021535404
-0.039481577
-0.03589234
0.023330022
-0.019142581
-0.017347965
0.01674976
-0.0023928226
0.0317049
-0.041874398
0.0011964113
0.06580262
0.046061836
-0.0029910284
-0.043669015
-0.012562319
-0.039481577
0.01375873
0.023928227
-0.038285162
0.0077766734
-0.009571291
-0.029910281
-0.03290131
-0.006580262
0.005383851
-0.029910281
-0.043070808
-0.0017946169
-0.014356935
-0.0017946169
-0.020937199
0.019740788
0.024526432
0.0
0.03888337
-0.023928227
-0.029910281
-0.059820563
-0.020338994
-0.062213387
0.0059820567
-0.01674976
-0.046061836
-0.024526432
-0.009571291
0.0035892338
-0.011964113
0.0077766734
-0.019142581
-0.014955141
0.014955141
-0.00059820566
0.013160524
-0.03708875
-0.056231335
-0.014356935
0.03708875
-0.03349952
-0.060418773
0.010767702
0.01674976
0.006580262
0.0029910284
-0.01375873
0.01375873
-0.020937199
0.0017946169
-0.03230311
-0.046660043
-0.0029910284
-0.009571291
-0.024526432
-0.005383851
-0.011964113
-0.0029910284
-0.042472597
-0.03409772
-0.013160524
0.0
-0.006580262
-0.03349952
0.016151555
0.047856454
-0.024526432
-0.0059820567
-0.02751746
-0.023928227
0.01794617
-0.013160524
-0.005383851
-0.009571291
-0.006580262
0.0023928226
0.0047856453
-0.05742774
-0.06580262
-0.019142581
0.0059820567
-0.0035892338
0.015553347
-0.0077766734
0.024526432
-0.039481577
-0.019142581
0.025124637
-0.03469593
-0.052043896
-0.023330022
0.0059820567
-0.026919257
0.0071784677
-0.021535404
-0.037686955
-0.0059820567
-0.021535404
-0.0059820567
-0.025722845
-0.01794617
-0.025124637
-0.0011964113
-0.03349952
-0.02213361
0.023928227
-0.036490545
0.014955141
0.018544376
-0.015553347
-0.014955141
-0.0317049
-0.0011964113
0.00418744
-0.016151555
-0.029910281
-0.03050849
-0.0059820567
-0.010767702
-0.024526432
-0.025124637
-0.019740788
-0.017347965
-0.024526432
-0.008973085
-0.025722845
-0.058025952
-0.009571291
0.021535404
-0.048454657
-0.049651075
0.008973085
0.03469593
0.02213361
-0.0317049
0.0077766734
-0.016151555
-0.03230311
-0.050249275
-0.005383851
-0.008973085
0.0011964113
-0.03349952
-0.005383851
-0.052642096
-0.023928227
0.047856454
0.012562319
0.005383851
0.042472597
0.022731815
-0.03230311
-0.020937199
-0.04546363
-0.047856454
-0.021535404
0.023928227
0.0047856453
-0.010767702
-0.021535404
-0.031106694
0.014356935
-0.0317049
-0.01794617
0.014955141
-0.054436717
-0.024526432
-0.0071784677
0.0035892338
-0.020338994
-0.010169497
-0.0071784677
0.018544376
0.014955141
-0.012562319
-0.049052864
0.02871387
0.019740788
-0.0017946169
-0.019740788
0.0059820567
-0.016151555
0.009571291
0.011365907
-0.0047856453
-0.026321048
0.021535404
-0.010767702
-0.03349952
0.01794617
-0.00059820566
-0.0059820567
-0.010767702
-0.00418744
0.019740788
0.009571291
0.01674976
-0.013160524
-0.011365907
-0.025722845
-0.042472597
-0.0077766734
-0.00418744
-0.017347965
0.040677987
-0.042472597
-0.009571291
0.043669015
-0.056231335
-0.018544376
-0.013160524
0.0023928226
-0.029312078
0.0011964113
0.029910281
-0.03290131
0.0059820567
-0.03589234
0.03529413
-0.005383851
-0.0029910284
-0.014356935
-0.01375873
-0.058025952
-0.019142581
-0.011964113
-0.008973085
-0.011964113
-0.06999007
-0.020937199
-0.020338994
0.009571291
-0.005383851
-0.029910281
-0.037686955
0.00418744
0.02751746
-0.0317049
-0.04127619
-0.053240303
-0.011365907
-0.031106694
0.042472597
0.03230311
0.00418744
0.006580262
0.0
-0.015553347
-0.02871387
0.0023928226
0.018544376
-0.04486543
-0.0023928226
-0.0059820567
0.0077766734
-0.0071784677
-0.02751746
-0.010169497
-0.013160524
-0.026919257
-0.010767702
-0.055633124
-0.02213361
-0.03469593
0.018544376
-0.011365907
-0.0047856453
-0.0634098
-0.00418744
-0.019142581
-0.020937199
-0.01375873
-0.029910281
-0.0317049
-0.04426722
-0.03349952
-0.022731815
0.023330022
0.025124637
-0.02751746
-0.025124637
-0.013160524
-0.023330022
-0.019142581
-0.047856454
-0.029312078
-0.07537391
-0.00837488
-0.020937199
-0.03290131
-0.03589234
-0.010767702
0.021535404
-0.04127619
0.00837488
0.010767702
-0.017347965
-0.010767702
0.01375873
-0.046660043
0.0029910284
0.010767702
0.019740788
0.014356935
0.049651075
-0.019740788
-0.028115667
-0.011964113
0.0017946169
0.00837488
-0.050847482
-0.026919257
-0.03589234
-0.00837488
-0.029312078
-0.0071784677
-0.043070808
-0.0077766734
-0.03349952
-0.0029910284
-0.006580262
0.0059820567
-0.0035892338
-0.04486543
0.01794617
0.054436717
-0.03529413
0.01794617
0.0077766734
0.016151555
0.0035892338
-0.00059820566
-0.013160524
-0.03230311
-0.0035892338
-0.050847482
-0.04486543
-0.0059820567
-0.04426722
-0.029910281
-0.03349952
-0.021535404
0.0017946169
-0.02751746
-0.011365907
0.013160524
-0.011365907
-0.0071784677
0.014356935
0.0011964113
0.012562319
0.03708875
0.0011964113
-0.021535404
-0.020338994
-0.03469593
-0.023928227
0.021535404
0.03529413
-0.011365907
-0.046061836
-0.026919257
-0.012562319
-0.04546363
-0.011365907
-0.015553347
-0.023928227
0.010169497
-0.03230311
0.011365907
-0.0023928226
0.0035892338
0.018544376
-0.0059820567
-0.010169497
-0.02213361
-0.053838514
-0.0059820567
-0.04486543
-0.049052864
-0.046660043
0.0035892338
0.020338994
0.013160524
-0.031106694
-0.028115667
-0.016151555
-0.009571291
0.022731815
-0.03409772
0.0059820567
-0.020937199
0.023330022
-0.0023928226
0.019740788
-0.012562319
-0.0047856453
0.01794617
-0.03050849
0.020338994
0.005383851
0.011964113
-0.014356935
-0.04426722
-0.011964113
-0.043669015
-0.019142581
-0.024526432
0.0017946169
0.0047856453
-0.024526432
-0.026321048
-0.025722845
0.014955141
0.010169497
-0.036490545
-0.020937199
-0.022731815
0.010169497
0.008973085
-0.01674976
0.04725825
0.00418744
-0.014955141
-0.011964113
-0.03589234
-0.023928227
-0.040079776
-0.009571291
0.012562319
-0.023330022
-0.04486543
-0.026919257
-0.043669015
-0.02751746
-0.049651075
-0.053838514
0.019740788
0.010767702
-0.00837488
-0.021535404
-0.04486543
0.0029910284
-0.01794617
-0.04546363
0.0035892338
-0.010169497
0.011964113
-0.021535404
-0.026321048
-0.00418744
-0.010767702
-0.024526432
-0.01794617
0.00059820566
-0.00837488
0.005383851
-0.020338994
0.0
-0.0023928226
-0.014955141
-0.03589234
-0.009571291
-0.00418744
-0.00837488
0.006580262
-0.01375873
-0.04426722
-0.031106694
-0.01375873
-0.050249275
0.00059820566
0.017347965
0.0035892338
-0.010767702
0.00418744
-0.008973085
-0.016151555
-0.019142581
-0.023928227
0.021535404
0.011964113
0.020338994
-0.0077766734
-0.014356935
-0.0035892338
0.018544376
-0.050847482
-0.03050849
-0.0077766734
-0.036490545
0.01375873
-0.043070808
-0.013160524
0.03409772
-0.011365907
-0.00059820566
-0.00837488
0.00418744
-0.01794617
-0.05144569
-0.023928227
-0.023928227
-0.0047856453
-0.010169497
-0.018544376
-0.006580262
0.0017946169
-0.025124637
-0.024526432
-0.028115667
-0.031106694
-0.02871387
-0.025124637
0.00059820566
-0.03349952
0.0059820567
-0.014955141
0.010169497
-0.029312078
0.024526432
-0.020338994
-0.054436717
-0.006580262
-0.0047856453
-0.0017946169
-0.010767702
-0.031106694
-0.013160524
0.011365907
-0.04546363
-0.050847482
0.017347965
0.006580262
0.006580262
-0.0059820567
-0.03589234
-0.028115667
0.009571291
0.019740788
-0.013160524
-0.017347965
0.02751746
0.020937199
0.0035892338
-0.010169497
-0.02751746
-0.025124637
-0.014356935
-0.055633124
-0.0077766734
-0.018544376
-0.0017946169
-0.00418744
0.011964113
-0.01375873
-0.019740788
0.02751746
0.0035892338
0.006580262
-0.03708875
-0.050847482
-0.039481577
-0.026321048
-0.03290131
-0.005383851
-0.017347965
-0.02871387
0.0023928226
-0.00837488
0.0077766734
-0.010169497
-0.038285162
-0.00837488
-0.019740788
0.0023928226
0.014955141
-0.0011964113
0.046061836
0.03529413
0.04426722
-0.02213361
-0.049052864
0.0035892338
-0.058025952
-0.025124637
0.00059820566
-0.0317049
-0.0029910284
-0.03050849
-0.03888337
-0.011964113
-0.018544376
-0.0011964113
0.015553347
0.0
-0.050847482
-0.010767702
-0.026321048
-0.0047856453
0.019142581
-0.006580262
-0.021535404
-0.02751746
-0.03888337
0.01674976
0.006580262
-0.03708875
-0.020937199
-0.03469593
-0.006580262
-0.017347965
-0.04426722
-0.010767702
0.0029910284
0.0017946169
-0.014356935
-0.011964113
-0.009571291
-0.02751746
-0.02751746
-0.023330022
-0.01674976
-0.061615184
0.0011964113
-0.029910281
-0.038285162
-0.0317049
0.0029910284
0.00418744
0.005383851
-0.010169497
0.021535404
-0.05503492
-0.056829542
-0.00837488
-0.010767702
-0.025722845
0.0011964113
-0.017347965
-0.0023928226
0.025722845
-0.013160524
-0.006580262
-0.04127619
-0.017347965
-0.014356935
-0.054436717
0.011964113
-0.0077766734
0.0
-0.028115667
-0.03888337
-0.02751746
-0.064008005
-0.040677987
0.0023928226
-0.04426722
-0.01794617
-0.064008005
0.006580262
-0.014955141
-0.0047856453
-0.012562319
0.0017946169
0.015553347
-0.025722845
-0.016151555
-0.01674976
-0.03888337
-0.01375873
0.018544376
-0.0071784677
-0.020937199
-0.018544376
-0.018544376
-0.020937199
0.046660043
0.0029910284
-0.04426722
-0.012562319
-0.015553347
-0.037686955
-0.008973085
-0.053838514
-0.029312078
-0.02751746
-0.046061836
-0.043070808
-0.031106694
0.010169497
-0.01794617
-0.00837488
-0.03349952
0.014955141
-0.00418744
0.015553347
-0.031106694
-0.016151555
-0.026321048
-0.038285162
-0.03050849
-0.01794617
-0.04725825
0.03290131
-0.0029910284
0.01674976
-0.020338994
-0.0035892338
-0.062213387
-0.058624156
-0.0059820567
-0.00418744
-0.020338994
-0.021535404
-0.03888337
-0.031106694
0.0
0.012562319
0.0071784677
-0.0071784677
0.0029910284
-0.005383851
-0.013160524
0.011365907
-0.0029910284
-0.020338994
-0.010169497
-0.01674976
-0.017347965
-0.022731815
0.011964113
0.00059820566
-0.0077766734
-0.0059820567
0.012562319
0.0029910284
-0.059222363
-0.053240303
-0.046061836
-0.040079776
-0.023928227
-0.0071784677
-0.06759725
-0.005383851
-0.0011964113
0.011365907
0.0047856453
0.014356935
0.03708875
0.0017946169
-0.0047856453
-0.023928227
-0.0023928226
-0.013160524
-0.046660043
-0.019142581
-0.039481577
-0.0029910284
0.03050849
-0.03050849
-0.0011964113
-0.025124637
0.0011964113
-0.0011964113
0.042472597
0.020937199
-0.0047856453
0.025722845
0.010169497
-0.0047856453
-0.028115667
-0.053240303
-0.03888337
-0.03589234
-0.015553347
-0.025722845
-0.01674976
0.0035892338
-0.016151555
-0.02871387
0.0029910284
0.005383851
0.03589234
0.029312078
0.00059820566
-0.00059820566
-0.041874398
-0.03290131
0.00059820566
-0.011964113
-0.023928227
-0.011365907
-0.01375873
-0.025124637
-0.038285162
-0.018544376
-0.023330022
-0.031106694
-0.014356935
-0.054436717
0.0059820567
0.012562319
0.00418744
-0.043669015
0.0035892338
-0.016151555
0.016151555
0.02751746
0.02871387
-0.01674976
-0.014356935
-0.0071784677
-0.03409772
-0.04486543
0.0
-0.017347965
-0.011964113
-0.040677987
-0.025124637
-0.00837488
-0.019142581
-0.00837488
-0.03349952
0.00059820566
-0.04127619
-0.017347965
-0.0317049
-0.011964113
-0.00059820566
-0.03888337
-0.031106694
-0.020338994
-0.025722845
-0.029910281
-0.041874398
-0.08554341
-0.04725825
0.0023928226
-0.011964113
-0.041874398
-0.005383851
0.0071784677
-0.052642096
-0.02751746
-0.05742774
-0.006580262
-0.011365907
0.0023928226
-0.03230311
-0.0059820567
-0.028115667
-0.01375873
-0.010767702
-0.005383851
-0.006580262
-0.014955141
-0.023928227
-0.041874398
0.0029910284
0.039481577
-0.016151555
-0.025124637
0.009571291
-0.0023928226
0.025722845
0.026321048
-0.0029910284
-0.020937199
0.023330022
-0.03708875
0.010767702
-0.0023928226
0.019142581
0.023330022
0.015553347
-0.02213361
-0.005383851
-0.03230311
-0.060418773
-0.0077766734
0.005383851
0.01674976
0.00418744
-0.00418744
0.0077766734
0.01375873
-0.020338994
0.0017946169
0.02871387
0.020338994
-0.02871387
-0.029312078
-0.02871387
0.02751746
-0.052043896
0.0071784677
-0.049052864
0.0029910284
-0.04127619
0.00059820566
-0.015553347
-0.05144569
-0.019142581
-0.0077766734
-0.049651075
-0.0077766734
-0.038285162
0.010169497
-0.020937199
-0.019740788
0.020338994
-0.0071784677
0.026321048
-0.024526432
-0.014955141
0.026321048
-0.005383851
0.019740788
-0.0077766734
0.041874398
-0.0029910284
-0.026321048
-0.031106694
-0.02871387
-0.048454657
0.0029910284
-0.0059820567
-0.049651075
-0.0317049
0.02871387
-0.026919257
-0.017347965
0.008973085
0.020937199
-0.016151555
-0.015553347
-0.011365907
-0.026321048
0.009571291
-0.060418773
-0.0071784677
-0.03589234
-0.011964113
-0.05503492
-0.014955141
-0.039481577
0.02871387
0.012562319
-0.03589234
0.0029910284
-0.00059820566
0.023928227
0.00837488
0.03708875
-0.024526432
0.00059820566
-0.043070808
-0.01794617
-0.03230311
0.03469593
0.008973085
-0.0017946169
-0.00418744
-0.014356935
-0.03349952
-0.016151555
-0.02213361
-0.011365907
-0.00837488
-0.041874398
0.00418744
-0.021535404
-0.01794617
-0.04725825
-0.0035892338
-0.005383851
-0.024526432
-0.0071784677
-0.036490545
-0.021535404
-0.0628116
0.03349952
0.0017946169
-0.013160524
-0.056231335
-0.019740788
0.02213361
0.021535404
-0.011365907
0.020338994
-0.024526432
-0.0071784677
-0.03050849
0.014955141
0.01375873
-0.025722845
-0.012562319
-0.0628116
-0.010169497
-0.0029910284
-0.020937199
-0.03290131
0.012562319
-0.009571291
-0.03409772
0.014356935
-0.043669015
-0.01794617
-0.021535404
0.0017946169
-0.013160524
-0.050847482
-0.03230311
-0.0035892338
-0.020338994
-0.00418744
-0.040677987
-0.04426722
-0.00837488
0.00418744
-0.0029910284
-0.024526432
-0.023330022
0.026321048
0.011964113
0.011964113
-0.03409772
0.006580262
-0.0077766734
0.0023928226
0.03050849
0.026321048
-0.0077766734
0.0047856453
-0.011365907
-0.0077766734
-0.0023928226
-0.040677987
-0.023928227
-0.042472597
-0.014356935
-0.020937199
0.005383851
-0.02871387
-0.047856454
-0.010169497
-0.053240303
-0.0071784677
-0.03050849
0.01674976
-0.03050849
-0.014955141
-0.017347965
-0.0071784677
-0.023330022
0.036490545
0.014356935
0.0077766734
-0.01674976
-0.005383851
0.00418744
-0.019142581
-0.046660043
-0.025722845
0.03050849
0.02213361
-0.013160524
0.0
0.00059820566
-0.011964113
-0.006580262
-0.00418744
-0.014356935
0.015553347
0.0011964113
-0.0071784677
-0.03050849
-0.041874398
-0.03409772
-0.025124637
-0.023330022
-0.060418773
-0.056231335
-0.061615184
0.0
0.0059820567
-0.020937199
0.00837488
-0.018544376
-0.010767702
-0.03469593
-0.054436717
-0.009571291
-0.041874398
-0.0317049
0.03290131
0.0029910284
-0.020338994
-0.00418744
-0.03230311
-0.018544376
-0.009571291
0.014955141
-0.024526432
-0.03349952
-0.03589234
0.00837488
-0.039481577
-0.025124637
-0.014356935
-0.04546363
-0.03589234
-0.040677987
-0.005383851
-0.02751746
-0.0011964113
0.0059820567
0.009571291
-0.009571291
0.0035892338
-0.0059820567
0.0029910284
-0.00418744
0.025722845
-0.018544376
-0.028115667
-0.019740788
-0.019740788
-0.012562319
0.0071784677
-0.03349952
-0.005383851
-0.012562319
-0.014955141
0.0
0.009571291
-0.03230311
0.0077766734
-0.01375873
-0.01375873
0.011365907
0.008973085
-0.025722845
-0.014356935
-0.024526432
-0.019740788
-0.018544376
-0.0035892338
-0.011365907
-0.02213361
-0.014356935
-0.005383851
-0.017347965
-0.07716853
-0.01674976
-0.014955141
-0.010767702
-0.022731815
-0.03349952
-0.028115667
-0.028115667
-0.0059820567
-0.02213361
0.0011964113
-0.039481577
-0.041874398
0.013160524
0.0
0.008973085
-0.029312078
-0.040079776
-0.020937199
-0.04127619
-0.025722845
-0.023330022
-0.00837488
0.010767702
-0.015553347
-0.01375873
-0.012562319
-0.006580262
0.028115667
-0.036490545
0.01375873
-0.0035892338
-0.03409772
0.03230311
0.006580262
0.022731815
-0.028115667
-0.053240303
-0.0023928226
-0.010169497
-0.0317049
-0.02751746
-0.03409772
-0.0059820567
-0.03230311
-0.026321048
-0.010767702
-0.0059820567
0.0011964113
-0.018544376
-0.038285162
-0.019740788
-0.03708875
-0.0077766734
-0.009571291
0.010767702
0.03708875
-0.0035892338
-0.0047856453
0.008973085
0.03589234
-0.03230311
-0.019740788
0.023330022
-0.0029910284
0.011365907
-0.039481577
-0.02213361
-0.0017946169
0.03050849
-0.020338994
0.00059820566
-0.023928227
0.0023928226
0.0011964113
-0.026919257
-0.014955141
-0.04546363
-0.029910281
-0.0059820567
-0.018544376
-0.024526432
-0.036490545
-0.0023928226
0.020338994
-0.040079776
-0.03409772
0.023928227
-0.01794617
0.041874398
-0.05144569
-0.014356935
-0.03349952
-0.043070808
0.02213361
-0.019142581
-0.022731815
-0.023928227
-0.00059820566
0.01674976
-0.037686955
-0.021535404
-0.0047856453
-0.010169497
-0.024526432
-0.0071784677
-0.005383851
-0.0317049
-0.010767702
-0.022731815
0.019740788
-0.021535404
0.02871387
-0.013160524
-0.013160524
-0.008973085
-0.039481577
-0.023928227
-0.02751746
-0.02213361
-0.0029910284
0.0029910284
-0.043070808
-0.048454657
-0.036490545
-0.03708875
-0.0035892338
0.021535404
-0.013160524
-0.020937199
-0.025124637
0.00059820566
-0.04725825
-0.017347965
-0.0023928226
0.013160524
-0.0059820567
-0.053240303
-0.0017946169
-0.02751746
-0.03708875
-0.037686955
0.011365907
-0.026919257
-0.040079776
-0.0029910284
0.0071784677
-0.0029910284
-0.00059820566
-0.010169497
-0.009571291
0.039481577
0.0017946169
-0.010169497
-0.011964113
0.028115667
0.011365907
-0.025722845
0.036490545
-0.014955141
-0.03888337
-0.039481577
-0.017347965
-0.020937199
-0.005383851
0.018544376
-0.04426722
-0.03888337
-0.0035892338
0.0035892338
-0.005383851
0.0071784677
0.029312078
0.03290131
-0.01375873
-0.018544376
-0.0029910284
-0.0047856453
-0.03349952
-0.037686955
-0.006580262
0.0071784677
-0.04486543
0.013160524
0.028115667
0.01674976
0.008973085
0.0077766734
-0.029312078
-0.049651075
-0.010169497
-0.043070808
0.0011964113
0.03050849
0.0035892338
-0.014356935
-0.020338994
-0.0035892338
-0.02751746
-0.01794617
-0.015553347
-0.0071784677
-0.0035892338
-0.006580262
-0.026919257
-0.01674976
-0.046660043
-0.00059820566
-0.021535404
0.03469593
-0.04426722
-0.019142581
-0.03230311
0.029312078
0.0035892338
-0.01375873
-0.03050849
-0.036490545
0.0077766734
-0.0059820567
0.046061836
-0.0011964113
-0.037686955
-0.026919257
-0.046660043
-0.014356935
-0.046660043
0.006580262
-0.022731815
0.025124637
-0.050249275
0.04546363
0.02871387
0.025124637
0.014356935
-0.018544376
0.014955141
-0.0059820567
0.038285162
0.0017946169
-0.062213387
0.00059820566
-0.026321048
-0.024526432
0.039481577
-0.0077766734
-0.028115667
-0.025124637
-0.0029910284
-0.03349952
0.020338994
-0.0077766734
0.014356935
-0.013160524
-0.061615184
-0.009571291
-0.02751746
-0.012562319
-0.026919257
-0.02751746
-0.012562319
-0.017347965
0.010169497
-0.03529413
-0.03230311
-0.009571291
0.008973085
-0.041874398
-0.023330022
-0.00059820566
-0.017347965
-0.053838514
-0.04426722
-0.00059820566
-0.036490545
-0.012562319
-0.031106694
-0.025722845
-0.055633124
-0.008973085
-0.03589234
-0.020338994
-0.036490545
-0.020937199
-0.00837488
0.016151555
-0.047856454
-0.022731815
-0.016151555
-0.0011964113
-0.03589234
-0.01674976
-0.023928227
0.0077766734
0.023330022
-0.011964113
-0.013160524
0.0
-0.023928227
-0.010169497
0.00418744
0.02213361
0.0035892338
-0.052642096
0.023928227
0.015553347
-0.020338994
-0.025722845
-0.059222363
-0.03589234
-0.014356935
0.00059820566
0.0077766734
0.0029910284
-0.010169497
-0.010169497
-0.031106694
0.0029910284
0.028115667
0.008973085
0.014356935
-0.010169497
-0.047856454
0.0035892338
-0.040677987
-0.0023928226
-0.014955141
-0.03529413
-0.02213361
0.014955141
-0.046660043
-0.053838514
-0.014955141
-0.0071784677
0.014955141
-0.015553347
-0.010169497
0.00059820566
-0.025722845
-0.0059820567
-0.01794617
0.014356935
-0.028115667
-0.01375873
-0.036490545
-0.014356935
-0.040079776
-0.026321048
-0.010169497
0.014356935
-0.08255238
-0.036490545
0.013160524
-0.0017946169
0.036490545
0.023928227
-0.0047856453
-0.012562319
-0.019740788
0.012562319
-0.026321048
-0.053240303
-0.0059820567
0.02213361
-0.05503492
-0.010767702
-0.011964113
-0.008973085
-0.040079776
-0.036490545
0.0029910284
-0.011365907
-0.009571291
0.039481577
0.023928227
-0.012562319
-0.00418744
-0.020338994
-0.03529413
0.0029910284
0.022731815
-0.013160524
0.025124637
0.0071784677
-0.0023928226
-0.01674976
-0.012562319
-0.0077766734
0.03290131
0.009571291
0.039481577
0.024526432
0.043669015
-0.022731815
-0.029910281
-0.017347965
-0.026919257
0.005383851
-0.022731815
-0.062213387
-0.02213361
-0.03589234
-0.05144569
-0.08793623
-0.0035892338
0.0071784677
0.006580262
0.0035892338
-0.028115667
0.010767702
-0.0317049
-0.0035892338
-0.047856454
0.040677987
-0.016151555
-0.026919257
-0.012562319
0.0
-0.014356935
0.0077766734
-0.049651075
-0.043669015
-0.036490545
-0.025124637
0.059820563
-0.026321048
0.01375873
-0.008973085
0.0023928226
0.0035892338
0.020937199
-0.010169497
-0.03888337
0.0071784677
0.046061836
0.03708875
-0.0077766734
-0.01375873
-0.01794617
-0.026919257
-0.050249275
-0.02871387
0.005383851
-0.054436717
-0.019740788
-0.00837488
-0.021535404
0.00059820566
0.0317049
-0.010767702
-0.0059820567
-0.0071784677
-0.0071784677
-0.03409772
-0.014356935
-0.029312078
-0.00418744
0.0023928226
-0.04486543
0.019740788
-0.0035892338
-0.025124637
-0.017347965
-0.0035892338
0.0071784677
0.0071784677
-0.00837488
-0.008973085
0.023928227
0.0077766734
0.020338994
-0.031106694
0.024526432
-0.058624156
-0.039481577
-0.049052864
-0.04486543
0.0023928226
-0.014955141
-0.03050849
-0.019740788
-0.0047856453
0.020338994
-0.0047856453
-0.01794617
-0.0029910284
-0.022731815
0.020937199
-0.07238289
-0.029312078
-0.029312078
0.023330022
0.020937199
-0.011964113
-0.00059820566
-0.03050849
-0.01375873
-0.031106694
-0.015553347
0.014356935
-0.03529413
-0.0035892338
-0.019142581
-0.011964113
-0.008973085
-0.03589234
-0.07178468
-0.0077766734
-0.0317049
0.0011964113
0.03469593
-0.006580262
-0.0634098
-0.041874398
-0.026919257
-0.0023928226
0.00837488
-0.03708875
0.024526432
-0.0029910284
0.01674976
-0.016151555
0.0077766734
0.01794617
-0.013160524
-0.0071784677
-0.04725825
-0.016151555
-0.02751746
0.00418744
0.014356935
0.0059820567
-0.010169497
-0.021535404
-0.014955141
-0.009571291
-0.023330022
-0.014955141
0.010169497
-0.052043896
-0.023928227
0.012562319
0.0317049
-0.017347965
-0.03529413
-0.02871387
-0.011365907
-0.020937199
-0.0071784677
0.0059820567
0.019142581
-0.041874398
0.020937199
-0.020338994
-0.00837488
0.0023928226
-0.00059820566
0.0011964113
-0.031106694
0.018544376
-0.02213361
-0.0317049
0.0011964113
0.018544376
-0.017347965
0.0035892338
0.016151555
-0.056231335
-0.013160524
0.0011964113
-0.025124637
-0.026919257
0.0035892338
-0.0011964113
0.029910281
-0.024526432
-0.010767702
-0.03469593
0.0035892338
-0.02751746
-0.006580262
-0.014955141
-0.026919257
-0.07537391
-0.046660043
0.0059820567
0.0029910284
0.0023928226
-0.015553347
0.0029910284
-0.02751746
-0.025124637
-0.018544376
-0.020338994
-0.0047856453
-0.0011964113
0.016151555
0.018544376
-0.02871387
-0.039481577
0.013160524
-0.010767702
-0.013160524
0.03349952
0.005383851
-0.0011964113
-0.03050849
0.013160524
-0.0011964113
-0.010169497
-0.029312078
-0.0035892338
0.0035892338
-0.04725825
-0.029312078
-0.014356935
0.012562319
-0.014356935
0.0023928226
0.056829542
0.006580262
-0.03469593
-0.012562319
-0.00837488
0.017347965
-0.018544376
-0.019142581
-0.015553347
-0.03529413
-0.0017946169
-0.0017946169
-0.0047856453
-0.016151555
-0.0077766734
0.011964113
-0.03050849
-0.015553347
0.00059820566
0.019142581
-0.03230311
-0.0071784677
0.042472597
-0.00837488
-0.0017946169
-0.020937199
-0.01375873
0.04127619
0.020338994
0.017347965
0.0035892338
0.016151555
-0.03050849
-0.00059820566
-0.014356935
-0.046061836
-0.009571291
-0.02213361
-0.04546363
0.010169497
-0.0035892338
-0.0071784677
-0.00059820566
-0.0077766734
0.014356935
-0.019740788
-0.013160524
-0.043669015
-0.020338994
-0.005383851
-0.03529413
0.014955141
-0.029910281
0.0047856453
0.018544376
0.006580262
0.012562319
-0.0047856453
0.020937199
0.0023928226
-0.006580262
-0.015553347
-0.019142581
0.0035892338
-0.01794617
-0.031106694
-0.02871387
-0.028115667
0.015553347
-0.043669015
0.03349952
-0.0071784677
-0.0023928226
-0.010767702
-0.023928227
-0.03888337
-0.017347965
-0.03708875
0.0029910284
0.012562319
-0.0029910284
0.026321048
-0.020937199
-0.0317049
-0.0011964113
0.0077766734
-0.014356935
-0.01674976
-0.028115667
0.0011964113
-0.023928227
0.0029910284
0.03708875
-0.03708875
0.009571291
0.03589234
0.0047856453
-0.0077766734
-0.008973085
0.028115667
-0.0035892338
0.011964113
0.029312078
-0.03230311
-0.015553347
-0.03050849
-0.014955141
0.011964113
-0.061615184
-0.026919257
-0.056231335
-0.0317049
-0.014955141
-0.025124637
-0.0029910284
-0.0059820567
-0.010169497
-0.029312078
0.022731815
-0.0029910284
-0.020937199
-0.012562319
-0.017347965
-0.015553347
0.023330022
-0.031106694
-0.00837488
-0.012562319
0.011964113
-0.014955141
-0.043669015
0.012562319
0.005383851
-0.022731815
-0.008973085
-0.017347965
0.00418744
-0.029312078
-0.013160524
-0.010169497
-0.03409772
-0.06460622
-0.006580262
-0.029910281
-0.028115667
0.0029910284
0.0047856453
-0.0077766734
-0.022731815
-0.04426722
-0.013160524
-0.036490545
-0.00059820566
-0.04725825
-0.01794617
-0.064008005
-0.024526432
0.010767702
-0.0023928226
0.0
0.023928227
-0.06520442
-0.01674976
0.006580262
-0.025124637
-0.038285162
-0.056231335
-0.014955141
-0.010169497
0.012562319
-0.029312078
-0.047856454
0.0047856453
-0.028115667
-0.03529413
-0.041874398
0.020338994
-0.052043896
-0.023330022
-0.026321048
-0.014955141
0.052043896
0.010767702
0.026321048
-0.03230311
-0.023928227
-0.005383851
-0.049651075
0.0071784677
-0.03230311
-0.023928227
-0.023928227
-0.01375873
0.0017946169
0.025722845
-0.0077766734
-0.02213361
-0.011964113
-0.008973085
0.011365907
-0.03589234
0.00059820566
-0.025722845
-0.00418744
-0.00418744
0.022731815
-0.01375873
-0.019142581
-0.0023928226
-0.0317049
-0.0059820567
-0.039481577
-0.047856454
-0.024526432
0.00837488
-0.0059820567
0.01375873
-0.013160524
0.00418744
0.00418744
0.0059820567
-0.026919257
-0.012562319
-0.026321048
-0.01375873
-0.019142581
-0.029910281
0.026321048
-0.041874398
0.025124637
-0.0017946169
0.019142581
-0.05144569
-0.024526432
-0.054436717
-0.026321048
-0.01674976
-0.049052864
-0.014955141
0.023330022
-0.0077766734
-0.008973085
-0.052043896
-0.0011964113
-0.0059820567
-0.0011964113
-0.01375873
-0.026919257
-0.049052864
-0.0059820567
-0.041874398
-0.015553347
0.006580262
-0.017347965
-0.00837488
0.00059820566
-0.03050849
-0.01674976
-0.023330022
0.025124637
0.0017946169
-0.03230311
0.00059820566
-0.01375873
-0.00059820566
-0.008973085
-0.019740788
-0.06580262
-0.028115667
-0.038285162
-0.02213361
-0.026321048
0.0011964113
-0.0071784677
-0.009571291
-0.010169497
-0.046660043
-0.0059820567
0.00837488
-0.008973085
-0.023330022
-0.03290131
0.0029910284
0.010767702
-0.042472597
-0.08554341
-0.016151555
0.023928227
-0.026919257
-0.008973085
-0.024526432
-0.023330022
-0.015553347
-0.043070808
-0.00059820566
-0.053838514
0.0059820567
-0.012562319
-0.019142581
0.028115667
-0.015553347
0.03050849
0.05144569
-0.010169497
-0.0047856453
-0.03050849
-0.026919257
-0.052642096
-0.037686955
-0.01674976
0.03349952
-0.008973085
-0.015553347
-0.01674976
0.021535404
-0.01674976
0.046660043
-0.03230311
-0.03589234
-0.02751746
0.013160524
0.011964113
0.012562319
-0.02213361
0.0
0.03050849
0.006580262
-0.014356935
0.00418744
-0.04426722
-0.061615184
0.016151555
-0.008973085
0.0029910284
-0.0735793
0.023330022
0.010169497
0.0029910284
-0.052642096
-0.0071784677
0.0011964113
-0.014356935
0.00059820566
0.0071784677
-0.024526432
-0.013160524
-0.025124637
-0.046660043
-0.022731815
-0.020338994
-0.049052864
-0.022731815
-0.020338994
0.03050849
-0.023928227
0.0
-0.049651075
-0.036490545
0.0047856453
0.024526432
-0.040677987
-0.03708875
-0.00059820566
-0.02751746
-0.00837488
-0.0071784677
0.005383851
0.0
-0.048454657
-0.016151555
0.00837488
-0.019142581
-0.01375873
-0.023928227
0.0071784677
-0.03290131
0.008973085
-0.046061836
-0.00418744
-0.021535404
-0.0029910284
0.011365907
-0.042472597
-0.0029910284
-0.03290131
-0.01674976
0.0017946169
-0.040677987
0.01794617
0.008973085
-0.0011964113
-0.00418744
-0.00418744
-0.018544376
0.006580262
0.024526432
0.025722845
-0.03529413
-0.0077766734
-0.0017946169
0.0035892338
-0.00418744
-0.043070808
0.0023928226
-0.023330022
-0.03290131
-0.02751746
0.0023928226
-0.010169497
-0.0035892338
-0.0023928226
-0.03589234
-0.00418744
-0.04725825
-0.01794617
-0.013160524
-0.023928227
-0.00837488
0.015553347
-0.011964113
-0.019142581
-0.0059820567
-0.02213361
-0.049651075
-0.062213387
0.022731815
-0.020338994
-0.019142581
0.0071784677
-0.00059820566
-0.081355974
0.0
-0.011964113
-0.0029910284
-0.0023928226
-0.020937199
-0.04725825
0.017347965
0.009571291
-0.009571291
-0.005383851
-0.0077766734
-0.010169497
-0.01375873
-0.02871387
0.008973085
0.00059820566
0.005383851
-0.0047856453
-0.0023928226
-0.00837488
-0.04127619
-0.0059820567
-0.039481577
-0.04725825
-0.014356935
-0.018544376
-0.026919257
0.025722845
-0.039481577
-0.01375873
-0.02213361
-0.025722845
-0.053240303
-0.01794617
0.020338994
-0.025722845
-0.0017946169
-0.005383851
-0.046061836
-0.0047856453
-0.052043896
-0.010169497
0.036490545
0.00059820566
0.00837488
-0.03290131
0.017347965
-0.042472597
0.010169497
0.042472597
-0.03409772
-0.019740788
-0.013160524
0.023330022
-0.024526432
-0.039481577
-0.055633124
0.0023928226
-0.010767702
-0.026919257
-0.014356935
-0.019740788
-0.011365907
0.00418744
-0.04127619
0.0029910284
-0.02751746
0.017347965
-0.014955141
-0.0071784677
-0.0059820567
-0.01674976
-0.01674976
-0.011964113
-0.009571291
-0.026321048
0.009571291
-0.04725825
-0.020338994
-0.039481577
-0.029312078
0.02213361
0.047856454
-0.025124637
-0.0029910284
-0.050847482
-0.052642096
-0.050847482
-0.048454657
-0.016151555
0.0
-0.084945194
-0.049052864
-0.015553347
0.005383851
-0.06101698
-0.040677987
-0.00418744
-0.056829542
-0.026321048
-0.03290131
-0.0071784677
-0.02213361
-0.014955141
-0.0059820567
-0.012562319
0.008973085
-0.052642096
-0.025722845
-0.02213361
-0.006580262
-0.00418744
-0.0011964113
-0.00418744
-0.06819544
-0.0023928226
0.011365907
-0.019740788
0.016151555
-0.0047856453
0.010767702
-0.0017946169
-0.014955141
-0.036490545
-0.009571291
0.01794617
-0.011964113
-0.023928227
-0.01375873
-0.0047856453
-0.019142581
-0.03529413
-0.03290131
0.006580262
-0.01794617
-0.03050849
-0.0628116
-0.012562319
0.011365907
-0.012562319
-0.040079776
-0.07058826
-0.0317049
-0.02751746
-0.03469593
-0.040079776
0.0011964113
-0.013160524
-0.02751746
-0.01794617
-0.00059820566
-0.023928227
-0.06520442
0.011964113
0.0059820567
0.026919257
0.02751746
0.015553347
0.008973085
-0.02213361
-0.03230311
-0.0017946169
0.0
0.0023928226
-0.03349952
0.008973085
0.008973085
-0.06759725
-0.03529413
0.01674976
-0.009571291
-0.047856454
-0.049052864
-0.020338994
-0.04426722
-0.00837488
0.00059820566
-0.024526432
-0.01674976
-0.03290131
-0.058025952
-0.06101698
-0.02871387
-0.023330022
-0.03290131
-0.059820563
-0.025722845
0.005383851
-0.039481577
-0.019142581
0.0317049
-0.03469593
-0.056231335
0.040079776
-0.0317049
0.02751746
-0.0023928226
-0.041874398
-0.010767702
-0.0077766734
0.037686955
0.03708875
-0.01794617
-0.0029910284
0.014356935
-0.017347965
-0.04725825
-0.039481577
-0.010767702
0.011365907
0.0023928226
-0.0047856453
-0.013160524
-0.020937199
0.023928227
0.012562319
-0.0029910284
0.03529413
-0.0011964113
-0.043669015
0.00418744
-0.029910281
0.005383851
0.024526432
-0.010169497
0.015553347
-0.042472597
-0.025722845
-0.00418744
-0.01794617
0.0047856453
-0.0035892338
-0.040677987
-0.0035892338
-0.037686955
-0.021535404
-0.025124637
-0.011365907
-0.026321048
-0.04725825
-0.014955141
-0.0023928226
-0.012562319
0.024526432
-0.055633124
0.00059820566
-0.026321048
-0.022731815
-0.0317049
-0.019142581
-0.022731815
0.0023928226
-0.008973085
-0.016151555
0.012562319
-0.011365907
-0.017347965
-0.023330022
0.010767702
0.008973085
-0.008973085
-0.010767702
-0.022731815
-0.026919257
-0.02751746
0.03050849
-0.005383851
0.03888337
0.011964113
0.011964113
0.009571291
-0.049651075
-0.0023928226
-0.03050849
-0.011365907
-0.03050849
-0.01375873
0.053240303
0.008973085
-0.0317049
-0.0029910284
-0.011365907
-0.04127619
-0.02871387
0.0059820567
-0.02871387
-0.0047856453
-0.025124637
-0.02871387
-0.016151555
0.0017946169
0.00837488
-0.043669015
-0.056829542
-0.0035892338
-0.0035892338
0.008973085
-0.0023928226
-0.02751746
-0.009571291
-0.06879365
0.008973085
0.041874398
0.009571291
-0.01674976
-0.03230311
-0.021535404
-0.03050849
-0.010767702
-0.02871387
-0.01674976
-0.028115667
-0.010767702
0.006580262
0.010767702
0.023928227
0.0071784677
-0.03230311
-0.052642096
-0.019740788
-0.031106694
-0.03469593
-0.017347965
-0.0071784677
-0.0059820567
-0.0071784677
-0.017347965
-0.016151555
-0.048454657
-0.0011964113
-0.053240303
-0.019740788
-0.0059820567
-0.00837488
-0.005383851
-0.029910281
-0.031106694
0.014356935
-0.00837488
0.0077766734
0.010767702
0.04426722
0.0011964113
-0.029312078
0.02871387
0.037686955
0.0011964113
-0.055633124
-0.024526432
-0.056231335
0.0059820567
0.0029910284
0.02871387
-0.04546363
0.020937199
0.009571291
-0.0317049
0.01674976
0.021535404
-0.012562319
-0.028115667
-0.019142581
-0.026919257
-0.03290131
-0.053240303
-0.03230311
-0.026321048
0.0029910284
0.026321048
-0.019142581
-0.010767702
-0.019740788
-0.043070808
-0.0035892338
-0.0011964113
-0.03230311
-0.053240303
-0.0011964113
0.005383851
0.0035892338
-0.04127619
-0.010169497
-0.013160524
-0.03529413
-0.038285162
-0.06879365
0.01794617
0.006580262
-0.008973085
-0.02213361
0.005383851
0.028115667
-0.029910281
-0.02751746
-0.047856454
-0.0071784677
-0.012562319
0.020937199
-0.06101698
0.0035892338
-0.008973085
-0.00059820566
0.005383851
-0.017347965
-0.03230311
0.028115667
-0.0071784677
0.01794617
-0.05503492
0.012562319
-0.022731815
-0.018544376
-0.024526432
-0.020338994
-0.010767702
-0.01794617
-0.008973085
-0.01674976
-0.019142581
-0.03589234
-0.0017946169
0.015553347
-0.005383851
-0.04127619
-0.006580262
0.005383851
0.014955141
-0.0023928226
0.0
0.0011964113
-0.029910281
-0.014356935
-0.023330022
0.039481577
-0.026919257
-0.010767702
0.0035892338
-0.019740788
-0.00837488
-0.016151555
0.026321048
-0.00837488
0.037686955
-0.02213361
-0.031106694
0.0029910284
-0.011964113
-0.0029910284
0.011365907
0.029910281
-0.041874398
-0.01794617
-0.0317049
-0.019142581
-0.018544376
-0.011964113
-0.058624156
-0.03409772
-0.0035892338
0.0047856453
-0.006580262
0.0077766734
0.047856454
-0.008973085
-0.010169497
0.026919257
-0.039481577
-0.053838514
-0.042472597
0.0029910284
-0.019740788
-0.03529413
0.011365907
-0.0017946169
0.014356935
-0.01674976
-0.06460622
-0.025124637
0.005383851
0.029910281
-0.04426722
-0.01674976
0.011964113
0.005383851
-0.043070808
-0.03050849
-0.03529413
0.029910281
-0.014356935
0.013160524
-0.00418744
-0.026919257
-0.008973085
-0.0047856453
-0.043669015
-0.015553347
-0.01674976
-0.01674976
-0.00837488
-0.010169497
-0.02871387
0.006580262
-0.03589234
-0.019142581
0.023928227
-0.00418744
0.023928227
0.0
0.011964113
-0.0071784677
-0.03050849
-0.015553347
-0.0077766734
-0.010767702
0.026321048
-0.00418744
0.0317049
0.0023928226
-0.0071784677
0.029312078
-0.010169497
-0.010767702
-0.014955141
-0.03050849
-0.03409772
-0.025124637
0.012562319
0.020338994
-0.019142581
-0.0059820567
0.01674976
-0.01375873
-0.060418773
-0.019740788
-0.059222363
-0.04127619
-0.023330022
0.0029910284
0.0071784677
0.0035892338
-0.01794617
-0.03708875
-0.038285162
-0.03529413
0.005383851
0.0047856453
0.0047856453
0.014356935
-0.02871387
0.038285162
-0.0634098
-0.041874398
-0.017347965
-0.029910281
-0.022731815
-0.039481577
-0.03409772
0.011365907
0.041874398
-0.0029910284
0.010767702
-0.011365907
-0.056231335
-0.023330022
-0.0077766734
-0.05742774
0.0071784677
-0.019142581
-0.0071784677
0.015553347
0.0011964113
-0.03469593
-0.043070808
-0.0047856453
0.010767702
0.050249275
-0.01375873
0.02213361
-0.0023928226
-0.012562319
0.00837488
-0.054436717
-0.020338994
-0.0035892338
-0.0035892338
-0.04546363
-0.0071784677
-0.01794617
-0.019142581
-0.04546363
-0.0011964113
-0.023330022
0.0317049
-0.0023928226
-0.076570325
0.011365907
0.026919257
-0.01794617
-0.010767702
0.03708875
0.019142581
-0.018544376
-0.0047856453
-0.025124637
-0.04725825
-0.020338994
-0.049651075
0.0
0.011365907
-0.009571291
0.0011964113
-0.03349952
-0.0035892338
0.019142581
-0.03708875
-0.04127619
-0.022731815
0.016151555
0.016151555
-0.01674976
-0.010767702
0.0047856453
-0.03290131
-0.036490545
0.019740788
-0.05742774
0.025124637
-0.00837488
-0.0077766734
-0.0011964113
0.008973085
0.02213361
-0.031106694
-0.020338994
-0.025722845
-0.031106694
0.015553347
-0.014356935
0.0317049
0.014356935
0.014955141
-0.03290131
0.021535404
-0.014356935
-0.0628116
-0.026321048
-0.02213361
0.009571291
0.025722845
-0.031106694
0.0059820567
0.00837488
-0.03050849
0.02751746
-0.016151555
-0.03589234
-0.016151555
-0.023928227
0.005383851
-0.040677987
-0.040079776
-0.0023928226
0.017347965
0.011365907
0.0059820567
-0.012562319
0.0023928226
0.026321048
-0.018544376
-0.020338994
-0.019740788
-0.03290131
-0.042472597
-0.0011964113
0.029910281
0.014955141
-0.0317049
-0.052642096
-0.052043896
-0.026321048
-0.014356935
-0.07298109
-0.009571291
-0.018544376
-0.0023928226
-0.015553347
-0.019142581
-0.0634098
-0.039481577
-0.03349952
-0.04426722
-0.023928227
-0.00059820566
-0.010169497
0.0035892338
-0.026919257
0.0023928226
-0.04546363
-0.062213387
-0.005383851
-0.037686955
-0.043669015
-0.048454657
-0.0011964113
-0.012562319
0.024526432
-0.0077766734
-0.03230311
-0.00837488
-0.017347965
-0.00059820566
-0.04127619
0.0035892338
0.0047856453
-0.006580262
0.041874398
-0.052043896
0.0011964113
-0.023330022
-0.013160524
0.010169497
-0.07298109
-0.029312078
-0.02213361
0.016151555
-0.015553347
0.012562319
-0.014356935
-0.0077766734
-0.010169497
-0.014356935
-0.0017946169
0.031106694
0.014356935
-0.03050849
0.059820563
0.012562319
-0.016151555
-0.019142581
-0.0017946169
0.01794617
-0.039481577
0.0035892338
-0.009571291
-0.011964113
-0.052043896
-0.014955141
-0.03708875
-0.009571291
-0.020338994
-0.0077766734
-0.07896315
-0.005383851
-0.023928227
-0.052642096
-0.018544376
-0.0023928226
-0.0317049
-0.038285162
-0.029312078
-0.005383851
-0.00837488
0.010767702
-0.026321048
0.054436717
0.0059820567
-0.036490545
-0.013160524
-0.02871387
0.0059820567
0.01674976
0.010767702
-0.0047856453
-0.043070808
0.028115667
0.0077766734
-0.00837488
-0.031106694
-0.011365907
-0.03888337
-0.03529413
-0.005383851
-0.010767702
-0.014955141
-0.010169497
-0.025124637
-0.052642096
0.00059820566
-0.04725825
0.03349952
-0.05144569
0.029312078
0.005383851
-0.052642096
-0.01375873
-0.006580262
0.009571291
0.020338994
-0.014356935
-0.03050849
-0.01794617
0.026321048
-0.03290131
-0.00837488
-0.011365907
-0.018544376
0.0071784677
-0.02751746
0.00418744
-0.020338994
-0.03888337
0.016151555
-0.011964113
-0.06699904
-0.020338994
-0.059222363
-0.015553347
-0.011365907
-0.031106694
0.0
-0.040079776
-0.029910281
0.019142581
-0.010767702
-0.01674976
-0.03290131
-0.018544376
0.018544376
-0.010169497
-0.014955141
-0.010767702
-0.029312078
0.011964113
-0.031106694
-0.0071784677
0.020937199
0.0017946169
-0.041874398
-0.03349952
-0.0035892338
-0.03290131
0.026321048
0.053240303
0.03888337
0.019142581
-0.03589234
-0.014955141
-0.03290131
-0.076570325
-0.022731815
0.038285162
-0.121435754
-0.031106694
0.025124637
-0.08554341
-0.011365907
0.023928227
-0.020937199
-0.046061836
-0.09212367
-0.18424734
-0.24047866
-0.116051905
-0.09930215
-0.19262223
-0.28833514
-0.15014961
-0.11724831
-0.07896315
0.025124637
-0.37387854
-0.005383851
-0.52642095
-0.5575277
-0.25722843
-0.24466611
0.604786
0.6370891
0.4737789
0.6059823
0.57188463
0.2512464
-0.040677987
-0.020338994
-0.03290131
-0.118444726
-0.11126625
-0.07238289
-0.109471634
-0.03469593
-0.04426722
0.049052864
0.14297116
-0.043669015
-0.024526432
0.09092726
0.066400826
0.09092726
0.12263216
0.15972091
0.27278176
0.3678965
0.075972125
-0.0951147
0.10049855
0.018544376
-0.046660043
0.28713873
0.10528419
0.42532426
0.28713873
-0.025124637
0.058624156
0.13399808
0.005383851
-0.3176472
-0.72861457
-0.67836523
-0.6502496
-0.8051849
-0.03409772
0.24885355
0.029312078
-0.052043896
-0.3098705
-0.050249275
0.03589234
0.01794617
-0.22731817
-0.40737805
-0.45583272
-0.32422748
-0.22911277
-0.39661035
-0.022731815
-0.084945194
0.3050849
0.4085745
0.26021945
0.1579263
0.08733803
0.12801601
0.06999007
0.0017946169
-0.096909314
-0.13998014
0.15493526
0.168694
0.09870394
0.066400826
0.08973086
0.008973085
0.12323037
-0.07298109
-0.019142581
-0.066400826
0.0029910284
-0.022731815
0.00418744
0.018544376
-0.00418744
0.005383851
-0.023330022
-0.03050849
0.00059820566
0.037686955
-0.031106694
0.009571291
-0.025722845
-0.026919257
0.022731815
0.022731815
0.020338994
0.012562319
0.0077766734
0.05144569
0.038285162
0.13459629
0.17407784
0.15433706
0.043070808
-0.0029910284
0.005383851
-0.06999007
0.0071784677
-0.061615184
-0.005383851
0.03888337
0.052043896
0.0077766734
-0.106480606
-0.28055847
-0.21296121
-0.15433706
-0.16510476
-0.17946172
0.02871387
-0.03230311
0.00059820566
-0.01674976
-0.014955141
0.020338994
-0.06580262
-0.025124637
-0.00837488
-0.03409772
-0.0077766734
-0.048454657
-0.101694964
-0.15553348
-0.11724831
-0.19322044
-0.16929221
-0.056231335
0.013160524
-0.084347
0.041874398
-0.049651075
-0.03409772
-0.006580262
0.020338994
0.014955141
0.00837488
0.029312078
0.019142581
0.028115667
0.031106694
0.016151555
0.02871387
0.011365907
0.026919257
0.014356935
0.019740788
0.026321048
0.015553347
0.058624156
0.04486543
0.06520442
0.039481577
-0.056231335
-0.008973085
-0.008973085
-0.01674976
0.0047856453
-0.016151555
0.010169497
0.03469593
0.018544376
0.02213361
0.019142581
0.011365907
-0.02213361
0.039481577
0.03290131
0.03349952
-0.0077766734
0.00837488
-0.029910281
0.018544376
-0.00059820566
-0.06939186
-0.091525465
-0.02871387
-0.036490545
-0.037686955
-0.00059820566
-0.03708875
-0.0059820567
-0.058624156
-0.029312078
-0.017347965
0.026919257
-0.050249275
0.0071784677
-0.01375873
-0.0047856453
-0.052043896
-0.037686955
-0.01674976
-0.014356935
-0.040079776
-0.013160524
-0.011365907
-0.03050849
0.015553347
0.03349952
0.008973085
0.020338994
-0.037686955
-0.0035892338
0.0011964113
-0.014356935
0.0017946169
0.0035892338
0.006580262
0.006580262
-0.010169497
0.00837488
-0.015553347
-0.018544376
-0.013160524
-0.023928227
0.009571291
0.010767702
0.0
-0.01375873
0.025722845
0.03708875
-0.026919257
-0.019142581
0.031106694
-0.01674976
-0.01794617
-0.043669015
-0.01375873
-0.028115667
-0.0035892338
0.0
-0.00418744
-0.04486543
-0.02213361
-0.018544376
0.00059820566
-0.006580262
-0.010767702
-0.03409772
-0.052043896
0.009571291
0.013160524
-0.00837488
-0.048454657
-0.056231335
0.0023928226
0.026919257
0.00059820566
-0.03230311
-0.024526432
-0.0023928226
0.0029910284
-0.040079776
0.0035892338
-0.025124637
-0.052642096
-0.024526432
-0.017347965
-0.010767702
0.00059820566
0.0
-0.050847482
-0.00837488
-0.014356935
-0.05503492
-0.024526432
-0.026321048
-0.00837488
-0.036490545
0.013160524
0.047856454
-0.0077766734
0.006580262
0.009571291
0.00418744
-0.00837488
-0.00418744
-0.013160524
-0.014955141
-0.03230311
-0.039481577
-0.025124637
0.0071784677
-0.024526432
-0.01674976
-0.017347965
-0.03708875
-0.0059820567
0.020338994
-0.0047856453
-0.011964113
-0.008973085
-0.01674976
-0.011365907
-0.0047856453
-0.019142581
-0.021535404
-0.0071784677
-0.03469593
0.0047856453
-0.01674976
-0.038285162
-0.03409772
-0.00418744
0.010767702
-0.042472597
-0.008973085
-0.0017946169
-0.0059820567
0.005383851
-0.00059820566
-0.037686955
-0.005383851
-0.011964113
-0.037686955
0.0023928226
-0.019740788
0.01375873
0.0071784677
0.017347965
-0.041874398
0.0071784677
-0.019740788
0.0023928226
-0.026321048
0.0011964113
-0.023928227
-0.01674976
-0.010169497
-0.07178468
-0.02871387
0.0035892338
0.042472597
-0.028115667
-0.020937199
-0.053240303
0.020937199
-0.03469593
-0.06580262
-0.031106694
-0.020937199
-0.04725825
-0.03290131
-0.061615184
-0.024526432
-0.049052864
-0.06819544
0.014955141
-0.020338994
-0.013160524
-0.0047856453
0.0077766734
-0.0029910284
-0.00418744
0.0029910284
0.020937199
-0.008973085
-0.040677987
-0.019142581
-0.011365907
-0.038285162
-0.025124637
-0.0029910284
-0.010169497
-0.0029910284
-0.07298109
-0.008973085
-0.01375873
-0.03230311
