4.359125137329102
2.076371908187866
3.0975091457366943
2.9856443405151367
1.767697811126709
3.315255880355835
1.7222341299057007
2.2809581756591797
2.4939193725585938
1.4093725681304932
2.599802017211914
1.4362916946411133
1.4679967164993286
1.8239290714263916
0.6041877269744873
1.550549030303955
0.8733802437782288
0.7322037220001221
1.2346965074539185
0.1902294009923935
1.1623135805130005
0.5694918036460876
0.1423729509115219
1.0809576511383057
0.06939186155796051
0.42652061581611633
0.47736814618110657
-0.06640082597732544
0.6891329288482666
0.1950150430202484
0.20757736265659332
0.6478567719459534
0.11964112520217896
0.3361915946006775
0.23270200192928314
-0.17527428269386292
0.20997019112110138
-0.03290130943059921
-0.1698903888463974
0.44745784997940063
0.13938193023204803
0.09631111472845078
0.24586252868175507
0.0891326442360878
0.24825535714626312
0.3601198196411133
0.1663011759519577
0.13878372311592102
-0.02512463741004467
-0.02991028130054474
0.02153540402650833
0.07896315306425095
0.13100703060626984
0.1543370634317398
0.2620140612125397
-0.17946171760559082
-0.24825535714626312
-0.19621145725250244
-0.7884350419044495
-0.7543373703956604
-0.6065805554389954
-1.189831018447876
-0.5108676552772522
-0.5318048000335693
-0.6831508874893188
-0.05024927482008934
-0.8171489834785461
-1.2574282884597778
-0.9194421172142029
-1.5104693174362183
-1.4907286167144775
-1.1102697849273682
-1.2323037385940552
-1.1048858165740967
-0.8189436197280884
-1.0636096000671387
-0.9254242181777954
-0.9068797826766968
-0.94815593957901
-0.7585247755050659
-0.751346230506897
-0.6161518692970276
-0.46241295337677
-0.23688945174217224
-0.2105683833360672
0.14775680005550385
0.3200400471687317
0.3445664644241333
0.7806584239006042
0.8123632669448853
0.8273184299468994
1.0719846487045288
1.0103693008422852
1.0707882642745972
1.086341381072998
1.0115658044815063
1.2131611108779907
1.5607186555862427
1.404586911201477
1.430907964706421
1.5762720108032227
1.6414762735366821
1.8418751955032349
1.8939192295074463
1.9172492027282715
1.9770697355270386
1.8687944412231445
1.9992033243179321
1.9950158596038818
2.056631088256836
2.0961124897003174
2.0542383193969727
2.2337000370025635
2.3060827255249023
2.3389840126037598
2.441875457763672
2.5214366912841797
2.5980074405670166
2.668595552444458
2.5848467350006104
2.720041275024414
2.5531415939331055
2.5393831729888916
2.575275421142578
2.4532413482666016
2.5980074405670166
2.5902304649353027
2.431705951690674
2.640479803085327
2.475973129272461
2.3300108909606934
2.551945447921753
2.2360928058624268
2.4771697521209717
2.3886351585388184
2.210369825363159
2.4873390197753906
2.289931058883667
2.423929214477539
2.4993033409118652
2.2953152656555176
2.304288148880005
2.355135679244995
2.2331018447875977
2.341975212097168
2.2271196842193604
2.1607186794281006
2.270190477371216
2.104487657546997
2.1326029300689697
2.1194427013397217
2.0554347038269043
2.0817556381225586
2.007578134536743
1.8323040008544922
1.8969101905822754
1.7497515678405762
1.7748762369155884
1.6911274194717407
1.6247265338897705
1.7437695264816284
1.5894323587417603
1.6199408769607544
1.6091731786727905
1.4979069232940674
1.6630116701126099
1.4985052347183228
1.5936198234558105
1.7467604875564575
1.7096717357635498
1.8532410860061646
1.7204395532608032
1.523629903793335
1.539183259010315
1.3866406679153442
1.579861044883728
1.614557147026062
1.6552350521087646
1.7347965240478516
1.7581264972686768
1.7503498792648315
1.6965112686157227
1.6181464195251465
1.646860122680664
1.7641085386276245
1.7252250909805298
1.864008903503418
1.534995675086975
1.6055840253829956
1.3591231107711792
1.0713863372802734
1.2245270013809204
1.081555962562561
1.0875380039215088
1.2281161546707153
1.2119646072387695
1.2454642057418823
1.086341381072998
0.8955138921737671
1.0456634759902954
0.8727820515632629
0.6011967062950134
0.28953155875205994
0.11605190485715866
0.1543370634317398
0.053240302950143814
0.05383851379156113
0.08374879509210587
0.014356935396790504
-0.05503492057323456
-0.07896315306425095
-0.16869400441646576
-0.15732808411121368
-0.11425727605819702
-0.06640082597732544
-0.03888336941599846
0.03290130943059921
0.1579263061285019
0.3092723488807678
0.4540380835533142
0.5497510433197021
0.6107680201530457
0.6029912829399109
0.6855436563491821
0.7812566161155701
0.853639543056488
0.9571290016174316
1.0600205659866333
1.1826525926589966
1.2903295755386353
1.3507484197616577
1.252044439315796
1.179661512374878
1.1856436729431152
1.2747762203216553
1.3238290548324585
1.3010972738265991
1.4404792785644531
1.3250256776809692
1.3232309818267822
1.3938192129135132
1.3543376922607422
1.2233306169509888
1.1425728797912598
1.2526427507400513
1.0205389261245728
1.1928220987319946
1.160519003868103
1.0235298871994019
1.333998680114746
0.8584251999855042
1.0199406147003174
1.0546365976333618
0.7082754969596863
0.973878800868988
0.5545367002487183
0.7752745151519775
0.7304091453552246
0.5425724983215332
0.6939185857772827
0.9254242181777954
1.1234301328659058
1.0115658044815063
1.2610174417495728
1.2089736461639404
1.225723385810852
1.5828521251678467
1.6935203075408936
2.0410778522491455
2.297109842300415
2.30488657951355
2.4400808811187744
2.356332302093506
2.3814568519592285
2.3736801147460938
2.376671075820923
2.372483730316162
2.3324038982391357
2.1948165893554688
2.152942180633545
2.1062822341918945
2.1397817134857178
2.162513494491577
2.1134607791900635
2.00518536567688
1.8945173025131226
1.8556338548660278
1.8011972904205322
1.724626898765564
1.7605191469192505
1.755135416984558
1.7437695264816284
1.7270196676254272
1.7659032344818115
1.6773687601089478
1.657029628753662
1.6731812953948975
1.6689938306808472
1.5577276945114136
1.4973087310791016
1.4871392250061035
1.3986047506332397
1.3429718017578125
1.296311616897583
1.2735798358917236
1.2251251935958862
1.1904292106628418
1.238285779953003
1.2023934125900269
1.2023934125900269
1.2203396558761597
1.195214867591858
1.2376874685287476
1.1509476900100708
1.197009563446045
1.181456208229065
1.1234301328659058
1.0911270380020142
1.1030913591384888
1.1228320598602295
1.0426725149154663
1.0325030088424683
0.9463613033294678
0.8865407705307007
0.973878800868988
0.9487541913986206
0.9894322156906128
1.0935200452804565
0.9864411354064941
1.0857433080673218
0.9708877801895142
0.9589236974716187
1.0851449966430664
0.9798608422279358
1.0929217338562012
1.0588239431381226
1.0887343883514404
1.0917253494262695
1.0666006803512573
1.0378868579864502
1.0456634759902954
0.9966105818748474
0.9002994894981384
0.9176474809646606
0.8410771489143372
0.835693359375
0.735194742679596
0.7124629616737366
0.6831508874893188
0.6927221417427063
0.6155536770820618
0.5665007829666138
0.7196414470672607
0.5162515044212341
0.5970093011856079
0.5018945336341858
0.40319064259529114
0.5030909180641174
0.28175488114356995
0.27038899064064026
0.3643072843551636
0.20159532129764557
0.2560320198535919
0.2315056025981903
0.2590230405330658
0.2470589429140091
0.21176479756832123
0.2638087272644043
0.2267199456691742
0.25304099917411804
0.24825535714626312
0.20039889216423035
0.25004997849464417
0.25304099917411804
0.17347964644432068
0.18783655762672424
0.18783655762672424
0.17946171760559082
0.1411765217781067
0.23988047242164612
0.20159532129764557
0.20039889216423035
0.1178465187549591
0.17168502509593964
0.12921243906021118
0.22492533922195435
0.3278167247772217
0.15553347766399384
0.26261231303215027
0.282951295375824
0.22552353143692017
0.3008974492549896
0.19381862878799438
0.2638087272644043
0.17647066712379456
0.25423741340637207
0.3684946894645691
0.22911277413368225
0.2225324958562851
0.21236301958560944
0.31046876311302185
0.3948157727718353
0.29730820655822754
0.27278175950050354
0.3373880088329315
0.37986060976982117
0.37866419553756714
0.3523431420326233
0.3397807776927948
0.4546363353729248
0.4025924503803253
0.5401796698570251
0.5216353535652161
0.4809573292732239
0.5647060871124268
0.5318048000335693
0.647258460521698
0.6191428899765015
0.5437690019607544
0.729810893535614
0.7088736891746521
0.7028916478157043
0.6891329288482666
0.6831508874893188
0.8512466549873352
0.6855436563491821
0.9122636914253235
0.9762716889381409
0.9601200819015503
1.0133603811264038
1.092323660850525
1.1539387702941895
1.1838489770889282
1.1312068700790405
1.2669994831085205
1.1982059478759766
1.1670992374420166
1.2490534782409668
1.186241865158081
1.331007719039917
1.2687941789627075
1.262213945388794
1.227518081665039
1.0588239431381226
1.0630115270614624
0.7980063557624817
0.5910272002220154
0.5569294691085815
0.31764718890190125
0.32901307940483093
0.2715853452682495
0.17288143932819366
0.03170489892363548
0.11186446249485016
-0.24047866463661194
-0.04307080805301666
0.08015955239534378
-0.14895321428775787
-0.25722843408584595
-0.06161518394947052
0.22432711720466614
-0.14835500717163086
0.43609195947647095
0.24167509377002716
0.46420761942863464
0.631106972694397
0.17527428269386292
0.5826523303985596
0.43190449476242065
0.26620152592658997
0.7148558497428894
0.5712864398956299
0.6149554252624512
1.0307084321975708
1.2197413444519043
1.3878371715545654
1.3184453248977661
1.2795618772506714
1.160519003868103
0.8051849007606506
1.103689432144165
1.1593226194381714
1.5002998113632202
1.7276179790496826
1.6444672346115112
1.7084753513336182
2.0237298011779785
1.3812568187713623
1.2819548845291138
1.8717855215072632
1.5361921787261963
1.5672990083694458
1.8945173025131226
1.4662021398544312
2.056631088256836
1.5882360935211182
1.6983059644699097
2.1912271976470947
1.4105689525604248
1.8233308792114258
1.992623209953308
1.2323037385940552
2.155334949493408
1.86520516872406
1.4524433612823486
2.108675003051758
1.6235301494598389
1.492523193359375
2.1858434677124023
1.5930217504501343
1.808974027633667
1.9244276285171509
1.8759729862213135
1.9615163803100586
1.6576279401779175
2.062613010406494
1.9555343389511108
1.7539390325546265
1.6139588356018066
2.0243279933929443
1.8406788110733032
2.4496521949768066
1.893320918083191
1.9519450664520264
2.0057835578918457
2.067399024963379
1.8113667964935303
1.68694007396698
1.6037894487380981
1.3710873126983643
1.2185449600219727
1.1647064685821533
1.1509476900100708
1.1294121742248535
1.0761719942092896
1.1132607460021973
1.131805181503296
1.310070276260376
1.2735798358917236
1.4297116994857788
1.4979069232940674
1.195214867591858
1.1976077556610107
1.179661512374878
1.294516921043396
1.095314621925354
1.0319048166275024
0.8231310248374939
0.5647060871124268
0.4570291042327881
0.35892343521118164
0.40319064259529114
0.07357929646968842
0.21774686872959137
0.09990034252405167
0.18843477964401245
0.28594231605529785
0.14715859293937683
0.2961117923259735
0.16689938306808472
0.28953155875205994
0.11545369029045105
0.27457642555236816
0.1902294009923935
-0.03768695518374443
-0.4025924503803253
0.038285162299871445
0.26979073882102966
-0.23868407309055328
0.11904292553663254
0.4654040038585663
0.5132604837417603
0.20997019112110138
0.020937198773026466
-0.03948157653212547
0.26979073882102966
0.07896315306425095
-0.018544375896453857
0.2225324958562851
0.29312077164649963
0.31405797600746155
0.37148571014404297
0.5365904569625854
0.32662031054496765
-0.04307080805301666
0.2793620228767395
0.2799602746963501
0.22911277413368225
0.43549373745918274
0.3439682722091675
0.15314064919948578
-0.10767702758312225
-0.07836494594812393
0.05443671718239784
0.02991028130054474
0.015553346835076809
0.23988047242164612
-0.13280165195465088
-0.4654040038585663
-0.6364908218383789
-0.7280163168907166
-0.46899324655532837
-0.6352943778038025
-0.6939185857772827
-0.6693921685218811
-0.5970093011856079
-0.5060819983482361
-0.5024927854537964
-0.5676971673965454
-0.7172486186027527
-0.8889336585998535
-0.91704922914505
-0.8476574420928955
-0.6664011478424072
-0.6634100675582886
-0.7328019142150879
-0.6538388133049011
-0.8315058350563049
-0.7519445419311523
-0.6735795140266418
-0.5353941321372986
-0.6951149702072144
-0.5617150664329529
-0.49172505736351013
-0.39960137009620667
-0.30687952041625977
-0.4785645008087158
-0.6358926296234131
-0.4893322288990021
-0.019142581149935722
-0.06041877344250679
-0.1782652884721756
-0.15314064919948578
0.129810631275177
-0.1495514214038849
-0.28594231605529785
-0.39900317788124084
-0.3571287989616394
-0.2315056025981903
-0.3086741268634796
-0.15194424986839294
-0.18424734473228455
-0.21595224738121033
-0.3200400471687317
-0.11724831163883209
0.047258250415325165
0.01495514065027237
-0.02991028130054474
-0.05802595242857933
-0.03888336941599846
-0.0005982056609354913
0.10648060590028763
-0.020937198773026466
-0.04307080805301666
-0.16749759018421173
-0.0933200865983963
-0.033499520272016525
0.29312077164649963
0.26081767678260803
0.005383851006627083
0.17288143932819366
0.07896315306425095
0.19740788638591766
0.37507495284080505
0.4498506784439087
0.2673979103565216
0.34636107087135315
0.5413761734962463
0.5958128571510315
0.5072783827781677
0.4468596577644348
0.6000003218650818
0.6358926296234131
0.5952146053314209
0.43190449476242065
0.818345308303833
0.7483553290367126
0.7387840151786804
1.0307084321975708
1.0390832424163818
1.1443674564361572
0.5760720372200012
0.8051849007606506
1.0977073907852173
1.0193424224853516
0.8931210041046143
0.7058826684951782
0.9278169274330139
0.8769695162773132
0.8955138921737671
0.6909275650978088
0.6346962451934814
0.5048856139183044
0.35832518339157104
-0.5204389095306396
-0.7405785918235779
-0.13698908686637878
0.8494520783424377
0.2560320198535919
1.0462616682052612
1.5068800449371338
1.7336000204086304
1.033101201057434
1.1641082763671875
2.7008986473083496
1.9040887355804443
2.6799614429473877
2.8013970851898193
2.647658109664917
1.9208383560180664
2.8289146423339844
2.1996023654937744
2.049452543258667
2.882154941558838
2.933600664138794
2.342573404312134
1.7659032344818115
2.091326951980591
2.4197418689727783
2.1409780979156494
1.8352949619293213
1.7952152490615845
1.929213285446167
1.9974087476730347
1.703689694404602
1.4859428405761719
1.6420745849609375
1.463211178779602
1.3806586265563965
1.454237937927246
1.3160523176193237
1.1198410987854004
1.1850453615188599
1.2167503833770752
0.9116654396057129
0.8907282948493958
1.0671988725662231
0.7663014531135559
0.8063812851905823
0.7920243144035339
0.656829833984375
0.695713222026825
0.5700899362564087
0.46839505434036255
0.27756744623184204
0.4654040038585663
0.3008974492549896
0.17168502509593964
0.2267199456691742
0.06400800496339798
0.026919256895780563
0.0101694967597723
-0.16510476171970367
-0.18903300166130066
-0.24885354936122894
-0.21355941891670227
-0.16689938306808472
-0.24107688665390015
-0.16809579730033875
-0.24047866463661194
-0.22612175345420837
-0.1423729509115219
-0.19202402234077454
-0.17647066712379456
-0.10348958522081375
-0.06340979784727097
-0.048454657196998596
-0.04187439754605293
0.029312077909708023
0.04666004329919815
0.05802595242857933
0.10827522724866867
0.13220344483852386
0.14057832956314087
0.22372892498970032
0.33499518036842346
0.2590230405330658
0.22133609652519226
0.48394834995269775
0.3326023519039154
0.33798620104789734
0.4378865361213684
0.2883351445198059
0.44327038526535034
0.40378880500793457
0.36191439628601074
0.4833501875400543
0.4390829801559448
0.4205385744571686
0.4630112051963806
0.4660022258758545
0.5365904569625854
0.6000003218650818
0.6209375262260437
0.6526423692703247
0.6915257573127747
0.6681957244873047
0.6622136831283569
0.729810893535614
0.6969096064567566
0.7154539823532104
0.7597212195396423
0.7525427341461182
0.6807580590248108
0.6903293132781982
0.6813562512397766
0.592223584651947
0.5413761734962463
0.5138586759567261
0.4486542344093323
0.41096732020378113
0.3523431420326233
0.36670008301734924
0.3930211067199707
0.18005990982055664
0.2709871530532837
0.24885354936122894
0.21176479756832123
0.18125632405281067
0.12023933231830597
0.1495514214038849
0.14835500717163086
0.1698903888463974
0.17228323221206665
0.20159532129764557
0.14715859293937683
0.1698903888463974
0.2309073805809021
0.2548356056213379
0.28115665912628174
0.30269208550453186
0.3577269911766052
0.39840495586395264
0.39601215720176697
0.47557348012924194
0.42472603917121887
0.4223332107067108
0.5718846321105957
0.6083751916885376
0.6418746709823608
0.5856433510780334
0.5467600226402283
0.5910272002220154
0.4983052909374237
0.4301098883152008
0.3595215976238251
0.2638087272644043
0.18364912271499634
0.0568295419216156
-0.020937198773026466
-0.1902294009923935
0.005982056725770235
0.07537391036748886
0.09092725813388824
0.06759724766016006
0.03290130943059921
0.04187439754605293
0.02871387079358101
0.06161518394947052
0.1094716340303421
0.14775680005550385
0.024526432156562805
0.12023933231830597
0.20997019112110138
0.1501496136188507
0.2470589429140091
0.11545369029045105
0.18305093050003052
0.18783655762672424
0.2273181676864624
0.2566302418708801
0.29371899366378784
0.3930211067199707
0.5395814776420593
0.4325026869773865
0.4737789034843445
0.5551348924636841
0.5210371017456055
0.5706882476806641
0.5162515044212341
0.5904290080070496
0.6340979933738708
0.6287141442298889
0.6867401003837585
0.6915257573127747
0.7387840151786804
0.7166503667831421
0.7830511927604675
0.7226324677467346
0.7549355626106262
0.844068169593811
0.836291491985321
0.8129614591598511
0.8410771489143372
0.8961120843887329
0.8608179092407227
0.8069794178009033
0.7872386574745178
0.861416220664978
0.7914260625839233
0.8626125454902649
0.9373882412910461
0.9708877801895142
0.9200403094291687
0.8763712644577026
0.8452646136283875
0.8309077024459839
0.865005373954773
0.8578268885612488
0.8913264274597168
1.0396814346313477
1.0911270380020142
1.0450652837753296
1.0342975854873657
1.0307084321975708
0.8949156999588013
0.861416220664978
0.7645068168640137
0.8249256610870361
0.8512466549873352
0.8512466549873352
0.8243274092674255
0.8099704384803772
0.8506485223770142
0.7920243144035339
0.6813562512397766
0.6269195675849915
0.687936544418335
0.695713222026825
0.6735795140266418
0.6556334495544434
0.6508477926254272
0.6544370055198669
0.6275177597999573
0.6203392744064331
0.5874379873275757
0.6269195675849915
0.6741777658462524
0.552742063999176
0.5982056856155396
0.6358926296234131
0.5934200286865234
0.568295419216156
0.6460620760917664
0.5784648656845093
0.5766702890396118
0.5910272002220154
0.5162515044212341
0.5078766345977783
0.5557330846786499
0.5365904569625854
0.5389833450317383
0.5084748268127441
0.4666004478931427
0.4127618968486786
0.4875376224517822
0.39900317788124084
0.36789649724960327
0.39182475209236145
0.3439682722091675
0.4384847581386566
0.40319064259529114
0.40319064259529114
0.3948157727718353
0.37088751792907715
0.3397807776927948
0.32183465361595154
0.3326023519039154
0.36251264810562134
0.29312077164649963
0.2871387302875519
0.2153540551662445
0.22492533922195435
0.13100703060626984
0.18544375896453857
0.1950150430202484
0.17946171760559082
0.19381862878799438
0.22193430364131927
0.20578275620937347
0.2512463927268982
0.2679961621761322
0.3254238963127136
0.3565305769443512
0.3780660033226013
0.41156551241874695
0.4223332107067108
0.4097708761692047
0.41994038224220276
0.5054838061332703
0.5318048000335693
0.5150550603866577
0.49172505736351013
0.5802595019340515
0.5868397355079651
0.5856433510780334
0.6239285469055176
0.6484549641609192
0.6837490797042847
0.6652047038078308
0.7704889178276062
0.7908278703689575
0.7740781307220459
0.8099704384803772
0.8039883971214294
0.7836495041847229
0.7483553290367126
0.7806584239006042
0.7998009920120239
0.8135597109794617
0.8033902645111084
0.7836495041847229
0.8309077024459839
0.9002994894981384
0.8644072413444519
0.9092726707458496
0.8578268885612488
0.8709874749183655
0.8171489834785461
0.7292127013206482
0.6604190468788147
0.6340979933738708
0.6484549641609192
0.6155536770820618
0.5168497562408447
0.47258248925209045
0.3607180118560791
0.3577269911766052
0.2799602746963501
0.276371031999588
0.2195414900779724
0.20458632707595825
0.1621137410402298
0.1579263061285019
0.1495514214038849
0.14715859293937683
0.138185515999794
0.1537388563156128
0.09511470049619675
0.0891326442360878
0.11485548317432404
0.09870394319295883
0.11006984114646912
0.09391827881336212
0.07058826088905334
0.08434700220823288
0.04127619042992592
0.019142581149935722
-0.022133609279990196
-0.02273181453347206
-0.06340979784727097
-0.05742774158716202
-0.034695930778980255
-0.01495514065027237
-0.058624155819416046
-0.056231334805488586
-0.09810572862625122
-0.0771685317158699
-0.034695930778980255
-0.10468599200248718
-0.04666004329919815
-0.05982056260108948
-0.02512463741004467
0.1136590838432312
0.19621145725250244
0.1010967567563057
0.0203389935195446
0.12323036789894104
0.21355941891670227
0.2273181676864624
0.2715853452682495
0.3128615617752075
0.3361915946006775
0.4019941985607147
0.42711883783340454
0.40378880500793457
0.46719861030578613
0.4372883439064026
0.4456632137298584
0.4731806516647339
0.5449653267860413
0.556331217288971
0.5461618304252625
0.41934219002723694
0.27338001132011414
-1.0707882642745972
-2.0303099155426025
-0.1615155190229416
1.0654042959213257
1.4021942615509033
1.2299108505249023
0.7986045479774475
0.4289134442806244
0.5407779812812805
0.6514459848403931
0.9296115636825562
0.8985049724578857
0.9708877801895142
1.0336995124816895
0.9116654396057129
0.7968099117279053
0.6693921685218811
0.6209375262260437
0.552742063999176
0.5282155871391296
0.4342972934246063
0.5910272002220154
0.755533754825592
0.8350951075553894
0.7992027401924133
0.7597212195396423
0.6041877269744873
0.6406782865524292
0.6107680201530457
0.7328019142150879
0.8847461938858032
0.8679963946342468
0.7651050686836243
0.7190431952476501
0.7094719409942627
0.6221339106559753
0.7591230273246765
0.7836495041847229
0.7639086246490479
0.7076773047447205
0.7244270443916321
0.6317052245140076
0.5790631175041199
0.6610172390937805
0.6370890736579895
0.4660022258758545
0.4331009089946747
0.40677985548973083
0.3672982454299927
0.24406792223453522
0.3158526122570038
0.3367897570133209
0.3768695592880249
0.3164508044719696
0.2799602746963501
0.23748765885829926
0.31824541091918945
0.33080774545669556
0.31884363293647766
0.3367897570133209
0.27457642555236816
0.27876386046409607
0.33379876613616943
0.3355933725833893
0.3320041596889496
0.38644087314605713
0.34695929288864136
0.3326023519039154
0.3032902777194977
0.31824541091918945
0.36311084032058716
0.36789649724960327
0.4456632137298584
0.4618147611618042
0.46719861030578613
0.5030909180641174
0.4049852192401886
0.380458801984787
0.38225340843200684
0.4091726541519165
0.413958340883255
0.42771705985069275
0.4342972934246063
0.430708110332489
0.40378880500793457
0.4648057818412781
0.44027936458587646
0.3774677813053131
0.24107688665390015
0.2883351445198059
0.5910272002220154
0.07178468257188797
0.2189432680606842
0.14895321428775787
0.3230310380458832
0.3613162338733673
0.18544375896453857
0.3601198196411133
0.4905286431312561
0.4301098883152008
0.11306087672710419
-0.1411765217781067
-0.6741777658462524
-1.2687941789627075
-1.5996019840240479
-1.539183259010315
-1.3238290548324585
-1.2323037385940552
-1.1270195245742798
-0.7525427341461182
-0.37507495284080505
-0.11904292553663254
0.04247259721159935
0.3451646566390991
0.49531427025794983
0.5958128571510315
0.7818548083305359
0.8494520783424377
0.9080761671066284
1.0055837631225586
0.9176474809646606
0.9080761671066284
0.966102123260498
0.8673982620239258
0.8673982620239258
0.8321040868759155
0.7238287925720215
0.6520441174507141
0.6083751916885376
0.6155536770820618
0.7262216806411743
0.6035895347595215
0.6502496004104614
0.5425724983215332
0.5228317379951477
0.5222336053848267
0.47258248925209045
0.5359923243522644
0.47258248925209045
0.46779680252075195
0.5210371017456055
0.5437690019607544
0.4211367666721344
0.4043870270252228
0.42472603917121887
0.430708110332489
0.50907301902771
0.41994038224220276
0.5132604837417603
0.5593222379684448
0.5449653267860413
0.5778666734695435
0.5670989155769348
0.5162515044212341
0.617946445941925
0.5868397355079651
0.5736792683601379
0.589830756187439
0.5826523303985596
0.5443671941757202
0.5491528511047363
0.46839505434036255
0.6107680201530457
0.556331217288971
0.4857430160045624
0.5365904569625854
0.45583271980285645
0.40019962191581726
0.5102694630622864
0.4654040038585663
0.348155677318573
0.3092723488807678
0.35054856538772583
0.3523431420326233
0.28594231605529785
0.3170489966869354
0.35413774847984314
0.4007977843284607
0.31465616822242737
0.323629230260849
0.3248256742954254
0.2835494577884674
0.29431718587875366
0.23629124462604523
0.22013968229293823
0.1944168359041214
0.1740778386592865
0.20877377688884735
0.1333998590707779
0.17647066712379456
0.12741780281066895
0.21296121180057526
0.19381862878799438
0.19561325013637543
0.19920247793197632
0.22911277413368225
0.19621145725250244
0.2566302418708801
0.1818545162677765
0.2955136001110077
0.2883351445198059
0.2847459018230438
0.26919257640838623
0.2548356056213379
0.2195414900779724
0.24646073579788208
0.2021935135126114
0.1860419660806656
0.19202402234077454
0.1411765217781067
0.21176479756832123
0.18364912271499634
0.14835500717163086
0.15912270545959473
0.1663011759519577
0.1459621787071228
0.09391827881336212
0.08793623000383377
0.0568295419216156
0.12263216078281403
0.10169496387243271
0.06460621953010559
0.05742774158716202
0.05204389616847038
0.0568295419216156
0.0005982056609354913
0.004785645287483931
-0.0568295419216156
-0.07118647545576096
-0.07537391036748886
-0.05742774158716202
-0.15912270545959473
-0.10707881301641464
-0.1375872939825058
-0.13100703060626984
-0.15254245698451996
-0.17587246000766754
-0.1944168359041214
-0.2667997181415558
-0.30687952041625977
-0.34217363595962524
-0.2919243574142456
-0.3846462368965149
-0.39900317788124084
-0.34277182817459106
-0.29012975096702576
-0.28893333673477173
-0.3846462368965149
-0.4145565330982208
-0.38285163044929504
-0.4043870270252228
-0.4097708761692047
-0.4534398913383484
-0.4043870270252228
-0.43130627274513245
-0.413958340883255
-0.4378865361213684
-0.4552345275878906
-0.43609195947647095
-0.42472603917121887
-0.3756731152534485
-0.4426721930503845
-0.5000999569892883
-0.42412781715393066
-0.35832518339157104
-0.39182475209236145
-0.3810570240020752
-0.3780660033226013
-0.3780660033226013
-0.33798620104789734
-0.38644087314605713
-0.3355933725833893
-0.3032902777194977
-0.3493521213531494
-0.3212364614009857
-0.2673979103565216
-0.251844584941864
-0.2632104754447937
-0.2554338276386261
-0.18005990982055664
-0.11665011197328568
-0.03290130943059921
-0.0005982056609354913
-0.03290130943059921
-0.053240302950143814
-0.08374879509210587
-0.09451650083065033
0.007178467698395252
0.0526420958340168
0.07357929646968842
0.08374879509210587
0.0891326442360878
0.08554340898990631
0.005383851006627083
0.005383851006627083
0.05204389616847038
0.11246266961097717
0.19980068504810333
0.1782652884721756
0.1657029539346695
0.13100703060626984
0.18484555184841156
0.07058826088905334
-0.03409771993756294
-0.10348958522081375
-0.07357929646968842
-0.09092725813388824
-0.10588239878416061
-0.16510476171970367
-0.2835494577884674
-0.3254238963127136
-0.37986060976982117
-0.4253242611885071
-0.3972086012363434
-0.35353952646255493
-0.38763725757598877
-0.23509481549263
-0.06520441919565201
-0.11425727605819702
-0.17228323221206665
-0.2949153780937195
-0.25304099917411804
-0.016151554882526398
0.2590230405330658
0.3780660033226013
0.44327038526535034
0.46061837673187256
0.42412781715393066
0.3529413342475891
0.6155536770820618
0.7280163168907166
0.7399803996086121
1.1724830865859985
1.3304094076156616
1.5678969621658325
1.5553346872329712
1.4919248819351196
1.4859428405761719
1.5152548551559448
1.5625132322311401
1.5158531665802002
1.8634105920791626
1.7922241687774658
2.1966114044189453
2.3886351585388184
2.2061827182769775
2.2713868618011475
2.3886351585388184
2.564507484436035
2.6117658615112305
2.6039891242980957
2.5405795574188232
2.5633113384246826
2.68953275680542
2.6075785160064697
2.9186456203460693
3.184846878051758
3.4271202087402344
3.3098719120025635
3.678964853286743
3.387638568878174
3.4953157901763916
3.8805601596832275
3.8811583518981934
4.056432247161865
4.53619384765625
4.792823791503906
4.9184465408325195
4.672584533691406
5.323431968688965
5.07397985458374
5.258227348327637
5.605186939239502
5.56450891494751
5.92343282699585
6.359524250030518
6.591030120849609
6.8273210525512695
6.878767013549805
7.1401824951171875
7.422535419464111
7.585846424102783
7.743173599243164
8.018348693847656
7.963912010192871
8.066803932189941
8.078169822692871
8.099106788635254
8.090133666992188
8.174480438232422
8.170891761779785
8.343174934387207
8.289934158325195
8.280961036682129
8.417351722717285
8.37846851348877
8.344968795776367
8.313263893127441
7.986045837402344
7.1240315437316895
7.086942195892334
7.202395915985107
7.201199531555176
6.990631580352783
6.256034851074219
6.424130439758301
6.756134986877441
6.901498794555664
6.751348972320557
6.761518955230713
6.600601673126221
6.315855503082275
6.39302396774292
6.3571319580078125
5.594419002532959
5.714659214019775
5.696712970733643
5.56869649887085
5.559723854064941
5.251049518585205
4.9956159591674805
4.985445976257324
5.065007209777832
4.9334025382995605
4.540978908538818
4.540978908538818
4.329812526702881
4.553541660308838
4.490131855010986
4.442275524139404
4.391427516937256
4.401597023010254
4.409972190856934
4.345964431762695
4.118646144866943
4.033102512359619
4.117449760437012
3.978665828704834
4.171288013458252
4.067200660705566
3.9493539333343506
3.756133556365967
3.6915271282196045
3.3098719120025635
3.325425386428833
3.3792636394500732
3.555136203765869
3.5982069969177246
3.3828532695770264
3.5294132232666016
3.7016968727111816
3.769293785095215
3.7525441646575928
4.268795490264893
4.955535411834717
4.639683246612549
4.0390849113464355
3.6532418727874756
3.5054850578308105
3.1686952114105225
3.0011980533599854
3.256631851196289
3.0592238903045654
2.7936203479766846
2.6045873165130615
2.8761727809906006
3.0077781677246094
2.6195425987243652
2.117647886276245
1.908874273300171
1.105484127998352
1.4177473783493042
1.5379868745803833
0.664606511592865
0.4420740008354187
0.23748765885829926
0.2757728397846222
0.6317052245140076
1.0103693008422852
0.9343972206115723
0.8524430990219116
0.28115665912628174
0.2183450609445572
-0.02871387079358101
0.04366901516914368
-0.5353941321372986
-0.664606511592865
-1.1509476900100708
-2.3186452388763428
-2.5298118591308594
-2.1517457962036133
-2.1266210079193115
-1.9369900226593018
-1.6414762735366821
-1.954936146736145
-2.2468602657318115
-2.2713868618011475
-2.5710880756378174
-2.5052855014801025
-2.580061197280884
-2.830111026763916
-2.909074306488037
-3.1106693744659424
-3.707080602645874
-3.9224343299865723
-3.8608193397521973
-3.8805601596832275
-4.615755081176758
-4.122833728790283
-3.6406795978546143
-3.562314748764038
-3.8638103008270264
-4.317249774932861
-4.7958149909973145
-5.449055194854736
-6.059823036193848
-6.1740803718566895
-6.194419860839844
-6.273383140563965
-6.14417028427124
-6.100501537322998
-6.340381622314453
-6.506682872772217
-6.845865249633789
-7.195217609405518
-7.455437183380127
-7.597211837768555
-7.771888256072998
-7.989037036895752
-8.128418922424316
-8.359925270080566
-8.572885513305664
-8.755936622619629
-9.08255672454834
-9.28295612335205
-9.3457670211792
-9.360722541809082
-9.448657989501953
-9.557531356811523
-9.500104904174805
-9.411569595336914
-9.374481201171875
-9.56770133972168
-9.715457916259766
-9.833902359008789
-9.907482147216797
-9.968499183654785
-9.78544807434082
-7.306483745574951
-9.673583984375
-10.331011772155762
-10.511072158813477
-10.101899147033691
-10.187442779541016
-10.056435585021973
-9.961320877075195
-10.101301193237305
-10.115657806396484
-10.0612211227417
-9.924830436706543
-10.584650039672852
-10.584053993225098
-10.195816040039062
-9.637093544006348
-9.753145217895508
-10.221540451049805
-10.74556827545166
-10.667202949523926
-9.786046028137207
-10.314860343933105
-12.641880989074707
-14.032708168029785
-12.946367263793945
-12.19083309173584
-11.038689613342285
-10.375279426574707
-9.707082748413086
-9.961320877075195
-9.684351921081543
-9.422337532043457
-9.254839897155762
-9.473185539245605
-9.256035804748535
-8.773882865905762
-8.48554801940918
-8.002197265625
-7.28375244140625
-7.070791244506836
-6.987640857696533
-6.690331935882568
-5.9647088050842285
-5.9922261238098145
-5.708676338195801
-5.502295970916748
-5.301897048950195
-4.655834674835205
-4.0977091789245605
-3.5784664154052734
-3.3828532695770264
-3.425924062728882
-1.5343974828720093
-2.3533411026000977
-2.42093825340271
-2.5094728469848633
-2.1373889446258545
-1.6229318380355835
-1.1629117727279663
-0.7076773047447205
0.09391827881336212
0.28594231605529785
0.08614161610603333
-0.03529413044452667
-0.10827522724866867
0.2632104754447937
0.664606511592865
1.1443674564361572
1.4051851034164429
1.5565310716629028
1.7126628160476685
1.9369900226593018
1.9800608158111572
2.090130567550659
2.1888344287872314
2.4598217010498047
2.6949164867401123
2.8725833892822266
2.8677978515625
2.534597396850586
2.0721843242645264
2.3198416233062744
2.325225591659546
0.9014959931373596
-1.9645074605941772
-4.115654945373535
-0.7357929944992065
7.497311592102051
11.291730880737305
12.111271858215332
10.52243709564209
10.103096008300781
9.229117393493652
8.280961036682129
8.391031265258789
9.684351921081543
10.049257278442383
10.494321823120117
10.834701538085938
11.155339241027832
11.007582664489746
9.994221687316895
9.721440315246582
9.520442962646484
9.485149383544922
9.449854850769043
8.935397148132324
8.694321632385254
9.016156196594238
8.956933975219727
8.995218276977539
9.186644554138184
8.958728790283203
8.11226749420166
7.653443336486816
7.3854475021362305
7.544570446014404
7.693522930145264
7.4434733390808105
7.7832536697387695
8.246264457702637
8.526226043701172
8.46580696105957
8.248658180236816
8.351550102233887
8.627921104431152
8.722437858581543
8.598608016967773
8.603992462158203
8.877970695495605
9.128020286560059
9.209376335144043
9.139386177062988
9.007183074951172
8.83071231842041
8.62313461303711
8.450851440429688
8.331809043884277
8.290532112121582
8.186445236206055
8.253443717956543
8.182855606079102
8.096116065979004
7.957331657409668
7.907680511474609
7.930412769317627
7.919046401977539
7.957930088043213
8.062017440795898
7.686943054199219
7.822735786437988
7.913662433624268
7.915457725524902
7.94716215133667
7.846065521240234
7.837690353393555
7.88913631439209
7.795816421508789
7.731209754943848
7.682755947113037
7.668398380279541
7.699504852294922
7.560123443603516
7.5673017501831055
7.596614360809326
7.52303409576416
7.41535758972168
7.2442708015441895
6.988836765289307
6.926024913787842
6.74776029586792
6.6723856925964355
6.460620880126953
6.421139717102051
6.348756790161133
6.21774959564209
6.046663284301758
5.979663372039795
5.849853038787842
5.637490272521973
5.443671703338623
5.243871212005615
5.041677951812744
4.9262237548828125
2.8414769172668457
3.7160537242889404
4.350152015686035
4.4135613441467285
4.111467361450195
3.755535125732422
3.445664882659912
2.967100143432617
2.879163980484009
2.864208698272705
2.796013355255127
2.665604591369629
2.713460922241211
2.6691935062408447
2.547758102416992
2.366501808166504
2.328814744949341
2.3300108909606934
2.341975212097168
2.3778676986694336
2.5393831729888916
2.9168508052825928
2.5220348834991455
2.7690939903259277
2.9766714572906494
3.102294683456421
3.1202406883239746
2.9425735473632812
2.9282166957855225
3.1034913063049316
3.1483564376831055
3.188436269760132
3.1902308464050293
3.243471145629883
3.2691938877105713
3.2333016395568848
1.6289139986038208
0.9146565198898315
2.2235305309295654
2.101496696472168
1.8957136869430542
2.3294129371643066
1.835893154144287
2.0207386016845703
2.134996175765991
1.7593228816986084
1.8406788110733032
1.8065810203552246
1.8233308792114258
2.0069799423217773
2.145763635635376
2.1517457962036133
1.7018951177597046
1.8765710592269897
1.8610178232192993
1.3429718017578125
1.3776675462722778
1.5397814512252808
1.265204906463623
1.3878371715545654
0.91704922914505
0.3355933725833893
0.3607180118560791
0.41036906838417053
0.0526420958340168
-0.4905286431312561
-0.6113661527633667
-1.2335000038146973
-1.524826169013977
-1.6917256116867065
-1.7563319206237793
-1.824527382850647
-1.8562321662902832
-2.2372889518737793
-2.4699912071228027
-2.5842483043670654
-2.5022945404052734
-2.8217360973358154
-3.1591241359710693
-3.425924062728882
-3.4737801551818848
-3.6634113788604736
-3.780061721801758
-3.8781673908233643
-4.012165546417236
-4.261617183685303
-4.351347923278809
-4.464409351348877
-4.497310161590576
-4.877171039581299
-5.012365341186523
-4.965704917907715
-5.157130718231201
-5.433501720428467
-5.7032928466796875
-5.986244201660156
-6.010172367095947
-6.289534091949463
-6.497111797332764
-6.679564952850342
-6.732206344604492
-6.763911247253418
-6.754340171813965
-6.926623344421387
-7.113862037658691
-7.130611419677734
-7.208976745605469
-7.198208332061768
-7.196413993835449
-7.22991418838501
-7.239484786987305
-7.2472615242004395
-7.306483745574951
-7.141379356384277
-6.9074811935424805
-7.167101860046387
-7.456035614013672
-7.730013847351074
-7.724031925201416
-7.539186000823975
-7.198208332061768
-6.93619441986084
-6.792026996612549
-6.753144264221191
-6.720242023468018
-6.724429607391357
-6.686743259429932
-6.401398658752441
-6.497111797332764
-6.32961368560791
-6.361319541931152
-6.2350969314575195
-6.168098449707031
-5.995815277099609
-5.900700092315674
-5.834897994995117
-4.403990268707275
-3.0137600898742676
-5.026124477386475
-5.452644348144531
-6.007779121398926
-5.2462639808654785
-5.2253265380859375
-4.884947299957275
-4.737190246582031
-4.9399824142456055
-4.8939208984375
-4.787439823150635
-4.745565414428711
-4.353740692138672
-4.316651821136475
-4.357928276062012
-4.533202648162842
-5.259424209594727
-6.6831536293029785
-6.288936614990234
-5.3964128494262695
-4.5577287673950195
-3.835096597671509
-3.552743434906006
-3.504887104034424
-3.2925240993499756
-3.477369546890259
-3.514458179473877
-3.270390272140503
-3.3786656856536865
-3.204587936401367
-2.8725833892822266
-2.3204398155212402
-1.8137595653533936
-1.4638092517852783
-1.495514154434204
-1.3692927360534668
-1.454237937927246
-1.1467602252960205
-1.0456634759902954
-0.9445667266845703
-0.7280163168907166
-0.36789649724960327
-0.20997019112110138
0.14057832956314087
0.36191439628601074
0.6358926296234131
0.8829516172409058
0.924227774143219
1.1724830865859985
1.2813565731048584
1.6444672346115112
1.8520448207855225
2.029711961746216
2.2845473289489746
2.51425838470459
2.620738983154297
2.7415764331817627
2.9001011848449707
3.0005996227264404
3.0687949657440186
3.3272199630737305
3.5401811599731445
3.682554006576538
3.917649030685425
4.020540714263916
4.066003799438477
4.086342811584473
4.050450801849365
4.107280254364014
4.126422882080078
4.270590305328369
3.9894332885742188
4.04985237121582
4.839483737945557
4.989035606384277
4.968696117401123
4.604987144470215
4.261019229888916
4.319045066833496
4.945366382598877
5.543571949005127
6.50608491897583
6.893721580505371
6.311069965362549
5.725426197052002
6.130411624908447
5.377869129180908
6.302096843719482
6.942774772644043
7.27537727355957
7.34596586227417
6.936792850494385
6.624529838562012
7.8077802658081055
8.250452041625977
8.556733131408691
8.634499549865723
8.82951545715332
9.568897247314453
9.908080101013184
9.882357597351074
9.460622787475586
9.383454322814941
9.437292098999023
9.345169067382812
11.181659698486328
11.45205020904541
11.402398109436035
10.645069122314453
10.14795970916748
9.68794059753418
8.745766639709473
8.103294372558594
8.21276569366455
8.175079345703125
8.277969360351562
8.46580696105957
8.939584732055664
9.57188892364502
9.373883247375488
8.682954788208008
8.368298530578613
8.212167739868164
7.864609241485596
7.609175682067871
7.018148422241211
6.6939215660095215
6.302694797515869
6.02811861038208
5.549554347991943
5.055436134338379
4.649254322052002
4.4691948890686035
4.165904521942139
3.9260239601135254
3.8249270915985107
3.7399818897247314
3.521038293838501
3.3062827587127686
3.2931220531463623
3.551547050476074
3.726821184158325
3.8195431232452393
4.054637908935547
4.1282172203063965
4.177868843078613
4.35972261428833
3.380460262298584
3.049652338027954
4.036691665649414
2.6392831802368164
2.342573404312134
4.253242015838623
4.886144161224365
5.154139518737793
4.719842910766602
4.9399824142456055
4.129413604736328
3.647858142852783
3.8386857509613037
3.762713670730591
3.325425386428833
3.0687949657440186
2.971287488937378
3.1818559169769287
2.992224931716919
2.958127021789551
3.02034068107605
2.991626501083374
2.8139593601226807
2.4562323093414307
1.9896321296691895
1.8658034801483154
2.0961124897003174
2.4059832096099854
2.396411895751953
2.3958137035369873
1.963310956954956
1.5792630910873413
1.4123635292053223
1.4673984050750732
1.5565310716629028
1.743171215057373
1.4482558965682983
1.4817553758621216
1.5134602785110474
1.373480200767517
1.2083754539489746
1.0929217338562012
1.1012966632843018
1.0079765319824219
0.9547362923622131
0.9122636914253235
0.7639086246490479
0.646660327911377
0.4995017349720001
-0.0364905446767807
-0.46002015471458435
-0.672383189201355
-0.4899304211139679
-0.45643091201782227
-0.5072783827781677
-0.31824541091918945
-0.3128615617752075
-0.4049852192401886
-0.6245267391204834
-0.7770691514015198
-0.7357929944992065
-0.9936195611953735
-1.4189438819885254
-1.609771490097046
-1.8095722198486328
-1.6037894487380981
-1.196411371231079
-1.1156535148620605
-1.37168550491333
-1.7850456237792969
-1.934597134590149
-1.8472590446472168
-1.8699909448623657
-1.6396818161010742
-1.8664017915725708
-1.7425731420516968
-1.5397814512252808
-1.9639091491699219
-2.0309081077575684
-1.9525433778762817
-2.2719850540161133
-2.3437697887420654
-2.249253273010254
-2.400001287460327
-2.6123640537261963
-2.3461625576019287
-1.5086747407913208
-2.3946170806884766
-4.010969161987305
-4.731806755065918
-4.150949001312256
-3.607180118560791
-3.270390272140503
-3.0687949657440186
-2.8731818199157715
-2.891127824783325
-3.1100711822509766
-3.4139599800109863
-3.7639100551605225
-3.9284164905548096
-4.1042890548706055
-4.273581027984619
-4.3519463539123535
-4.52781867980957
-4.600800037384033
-4.659423828125
-4.83051061630249
-5.047060966491699
-5.271986961364746
-5.395815372467041
-5.505885124206543
-5.72841739654541
-6.005984783172607
-6.028716564178467
-5.8067827224731445
-5.624330043792725
-5.663811683654785
-5.873183250427246
-6.104689121246338
-6.509076118469238
-6.665805816650391
-6.712465763092041
-6.985247611999512
-7.072585582733154
-7.044469833374023
-7.21316385269165
-7.356135368347168
-7.205986022949219
-7.16770076751709
-7.272386074066162
-7.414759159088135
-7.674380779266357
-7.973483562469482
-8.132007598876953
-8.46580696105957
-8.475976943969727
-8.435297966003418
-8.50887680053711
-8.630910873413086
-8.71525764465332
-8.824131965637207
-8.7445707321167
-8.656634330749512
-8.868399620056152
-9.415757179260254
-9.92124080657959
-9.979865074157715
-9.867402076721191
-9.388837814331055
-9.471988677978516
-9.366703987121582
-9.221938133239746
-8.330612182617188
-8.5704927444458
-8.59322452545166
-5.42153787612915
-8.042875289916992
-9.797411918640137
-9.68076229095459
-9.379266738891602
-9.586246490478516
-9.413963317871094
-8.784650802612305
-8.596216201782227
-8.623733520507812
-8.189435958862305
-8.01894760131836
-7.8179497718811035
-7.58524751663208
-7.3567328453063965
-7.059425354003906
-6.854838848114014
-6.6592254638671875
-6.410970211029053
-6.037690162658691
-5.590829849243164
-5.2737812995910645
-4.956133842468262
-4.7503509521484375
-4.534399032592773
-4.3896331787109375
-4.074378967285156
-3.686143636703491
-2.675175428390503
-2.407777786254883
-1.5678969621658325
-0.9409775137901306
-1.508076548576355
-1.3992030620574951
-0.8243274092674255
-0.5928218364715576
-0.04007977619767189
0.503689169883728
0.8255237936973572
1.1324033737182617
1.2448660135269165
1.5828521251678467
1.7270196676254272
1.7234303951263428
1.903490424156189
2.1601204872131348
2.3611176013946533
2.0554347038269043
2.5776681900024414
3.3074791431427
3.073580503463745
-1.9010976552963257
1.3896318674087524
4.751547813415527
7.187440872192383
11.084750175476074
11.825928688049316
10.191629409790039
9.391231536865234
10.16830062866211
10.324432373046875
10.598410606384277
11.045269012451172
11.124232292175293
11.614163398742676
11.547762870788574
11.2576322555542
11.282157897949219
11.989836692810059
12.650256156921387
13.599608421325684
13.84546947479248
13.71207046508789
13.26521110534668
13.12104320526123
13.411770820617676
13.603795051574707
13.904093742370605
13.953744888305664
13.934602737426758
13.95913028717041
13.801202774047852
13.486546516418457
13.331013679504395
13.165310859680176
13.088740348815918
12.964313507080078
12.824333190917969
12.723834037780762
12.589238166809082
12.359527587890625
12.105290412902832
11.944971084594727
11.797213554382324
11.56869888305664
11.411970138549805
11.318050384521484
11.079965591430664
10.945966720581055
10.920245170593262
10.88255786895752
10.680364608764648
10.577472686767578
10.569695472717285
10.404590606689453
10.28016471862793
10.219745635986328
10.187442779541016
9.90090274810791
9.616156578063965
9.620941162109375
9.757332801818848
9.65922737121582
9.640084266662598
9.607781410217285
9.66520881652832
9.605387687683105
9.480961799621582
9.353544235229492
9.22433090209961
9.08255672454834
8.862417221069336
8.487940788269043
8.458627700805664
8.447261810302734
8.054241180419922
7.791030406951904
7.88913631439209
7.94835901260376
7.660023212432861
7.660023212432861
7.175477027893066
6.513861179351807
5.982655048370361
5.62253475189209
4.968696117401123
4.192224979400635
3.7782669067382812
3.387638568878174
2.98923397064209
2.6841487884521484
2.155334949493408
2.1852452754974365
1.8945173025131226
1.3142578601837158
0.6155536770820618
0.20398813486099243
-0.1094716340303421
-0.4372883439064026
-0.6664011478424072
-0.9278169274330139
-0.9122636914253235
-1.0109676122665405
-1.3399807214736938
-1.7545371055603027
-1.825723648071289
-1.8047864437103271
-1.9758732318878174
-1.954936146736145
-2.004587173461914
-1.9202401638031006
-1.8472590446472168
-1.8879371881484985
-1.6019947528839111
-1.3351950645446777
-1.1006983518600464
-1.2532408237457275
-1.1467602252960205
-1.1958130598068237
-1.3142578601837158
-1.2245270013809204
-1.101894736289978
-1.1545369625091553
-1.0779666900634766
-1.0803593397140503
-1.9238293170928955
-2.1122641563415527
-1.772483229637146
-1.8364914655685425
-1.841277003288269
-1.743171215057373
-1.7718852758407593
-1.8723838329315186
-1.8269201517105103
-1.9363917112350464
-1.8747764825820923
-1.9387845993041992
-2.156531572341919
-2.2719850540161133
-2.3946170806884766
-2.6183462142944336
-2.4699912071228027
-2.441875457763672
-2.3371894359588623
-2.342573404312134
-2.321038007736206
-2.1481564044952393
-2.060818672180176
-2.0057835578918457
-1.9896321296691895
-1.7234303951263428
-1.5086747407913208
-1.5038890838623047
-1.4303096532821655
-1.3531410694122314
-1.2819548845291138
-1.105484127998352
-0.997208833694458
-1.081555962562561
-1.1216356754302979
-1.1132607460021973
-1.01814603805542
-0.8590233325958252
-0.7752745151519775
-0.5341976284980774
-0.42352959513664246
-1.238285779953003
-2.352144718170166
-0.3888336718082428
-0.022133609279990196
0.12442677468061447
0.2650051414966583
0.5353941321372986
0.3684946894645691
0.1698903888463974
0.15613168478012085
0.018544375896453857
-0.04905286431312561
-0.16390836238861084
-0.284147709608078
-0.2919243574142456
-0.4049852192401886
-0.4450649917125702
-0.3978067636489868
-0.39960137009620667
-0.4899304211139679
-0.6622136831283569
-0.835693359375
-0.9511469602584839
-0.9553344249725342
-0.9427721500396729
-0.9194421172142029
-0.9212367534637451
-1.00259268283844
-1.0917253494262695
-1.1784651279449463
-1.2376874685287476
-1.3375877141952515
-1.4321043491363525
-1.5487545728683472
-1.6205391883850098
-1.2658032178878784
-0.9469596147537231
-1.246660590171814
-2.008774518966675
-2.7086753845214844
-3.3098719120025635
-3.549154043197632
-3.576671600341797
-3.4827535152435303
-3.300898790359497
-3.0975091457366943
-3.1345980167388916
-3.0514471530914307
-3.166900634765625
-3.277568817138672
-3.4881372451782227
-3.5946178436279297
-3.8488552570343018
-4.119842052459717
-4.3692946434021
-4.426721572875977
-4.483551502227783
-4.814957618713379
-4.801198959350586
-5.029115200042725
-4.82632303237915
-4.895715236663818
-5.020740032196045
-5.027918815612793
-5.319843292236328
-5.644070625305176
-5.511867046356201
-5.5381879806518555
-5.690132141113281
-5.6368913650512695
-5.723631858825684
-5.712863922119141
-6.138786792755127
-6.645466327667236
-6.9720869064331055
-7.186842918395996
-6.329016208648682
-5.690132141113281
-5.325825214385986
-5.316253185272217
-5.374279499053955
-5.7409796714782715
-5.7726850509643555
-5.621338367462158
-5.541179180145264
-5.412564277648926
-5.49092960357666
-5.3940205574035645
-5.463412284851074
-5.502295970916748
-5.122435092926025
-4.9956159591674805
-4.926821708679199
-4.878965377807617
-4.849653244018555
-4.722235202789307
-4.657031059265137
-4.453640937805176
-4.311268329620361
-4.207180023193359
-4.104887008666992
-3.9110686779022217
-3.6191444396972656
-2.1750760078430176
-3.1040890216827393
-3.1453654766082764
-3.298506021499634
-3.0095725059509277
-3.0586254596710205
-3.0137600898742676
-2.7361929416656494
-2.3569302558898926
-2.0404794216156006
-1.7868403196334839
-1.4859428405761719
-1.2269197702407837
-1.079761266708374
-0.7657032608985901
-0.4534398913383484
-0.08793623000383377
0.13519449532032013
0.3810570240020752
0.8045865893363953
1.1527422666549683
1.437488317489624
1.7407784461975098
1.8801604509353638
2.2600209712982178
2.4915266036987305
3.3571300506591797
3.8524444103240967
4.246064186096191
4.641478061676025
4.6779680252075195
5.8959150314331055
5.087141036987305
4.9399824142456055
5.522036552429199
5.8713884353637695
6.081358432769775
6.254240036010742
6.741778373718262
7.1371917724609375
7.2676005363464355
7.4572319984436035
7.634899139404297
7.7802629470825195
7.7868428230285645
7.896912574768066
7.960921287536621
8.103294372558594
8.14397144317627
8.285747528076172
8.514261245727539
8.729615211486816
8.852846145629883
8.855836868286133
8.97368335723877
9.254839897155762
9.287741661071777
9.457033157348633
9.675378799438477
9.784850120544434
9.869196891784668
9.976874351501465
9.978071212768555
10.058828353881836
10.116256713867188
10.250852584838867
10.273584365844727
10.29153060913086
10.366305351257324
10.457233428955078
10.532010078430176
10.714462280273438
10.76052474975586
10.908878326416016
10.905887603759766
10.773683547973633
10.658828735351562
10.521839141845703
10.432109832763672
10.41176986694336
10.49372386932373
10.395618438720703
10.427922248840332
10.365708351135254
10.347762107849121
10.278369903564453
9.957731246948242
9.657432556152344
9.587442398071289
9.526424407958984
9.44327449798584
9.489934921264648
9.512068748474121
9.634699821472168
9.469595909118652
9.123832702636719
8.912068367004395
8.724828720092773
8.598608016967773
8.512466430664062
8.356932640075684
8.22114086151123
8.174480438232422
7.9214396476745605
7.697112083435059
7.41834831237793
7.2604217529296875
7.0301127433776855
6.817749500274658
6.63051176071167
6.375675678253174
6.243472099304199
6.03649377822876
5.870192527770996
5.720042705535889
5.514857769012451
5.385047435760498
5.178067684173584
5.045266628265381
4.965106964111328
4.8502516746521
4.626523017883301
4.450051784515381
4.321437358856201
4.149753093719482
3.975076675415039
3.8219361305236816
2.5501506328582764
0.8141579627990723
2.3545374870300293
2.644667148590088
2.57228422164917
2.0787646770477295
1.1581262350082397
0.20338992774486542
0.4977070987224579
1.0049855709075928
1.1341978311538696
0.7663014531135559
0.18125632405281067
-0.560518741607666
-0.6837490797042847
-0.8267202377319336
-0.9702895879745483
-1.2795618772506714
-1.6630116701126099
-2.032702922821045
-2.0003998279571533
-2.2259232997894287
-2.891127824783325
-3.025724172592163
-3.0885355472564697
-3.290729522705078
-3.8261234760284424
-3.5850462913513184
-3.720241069793701
-3.5473597049713135
-3.2470602989196777
-3.4965121746063232
-3.926621913909912
-3.972683906555176
-4.235894680023193
-4.431507110595703
-4.188037872314453
-4.118646144866943
-3.9361934661865234
-4.588237285614014
-4.193421840667725
-3.9110686779022217
-3.803989887237549
-4.153341770172119
-4.047459602355957
-3.7034912109375
-3.7148571014404297
-3.717250347137451
-3.6532418727874756
-3.8488552570343018
-3.845266103744507
-3.8021953105926514
-3.6269211769104004
-3.4785659313201904
-3.510270833969116
-3.3583266735076904
-3.3056845664978027
-3.2955150604248047
-3.2004003524780273
-3.1411778926849365
-3.101696252822876
-2.9868407249450684
-2.753540515899658
-2.715853691101074
-2.7044878005981445
-2.6386852264404297
-2.3850460052490234
-2.383251428604126
-2.060818672180176
-1.9351954460144043
-1.7539390325546265
-1.6636099815368652
-1.5427722930908203
-1.441077470779419
-1.3854442834854126
-1.425524115562439
-1.4273186922073364
-1.4781662225723267
-1.4662021398544312
-1.354935884475708
-1.2424731254577637
-1.2137593030929565
-1.2329018115997314
-1.1491531133651733
-1.210170030593872
-1.3609179258346558
-1.3004992008209229
-1.3316056728363037
-1.3555340766906738
-1.322034478187561
-1.3519448041915894
-1.3902299404144287
-1.4344972372055054
-1.5308082103729248
-1.6474583148956299
-1.7389837503433228
-1.8424735069274902
-1.9956141710281372
-2.1194427013397217
-2.1194427013397217
-2.2648067474365234
-2.352742910385132
-2.4604198932647705
-2.565105676651001
-2.688336133956909
-2.7798619270324707
-2.9324042797088623
-3.170490264892578
-3.31585431098938
-3.339782476425171
-3.3415768146514893
-3.406780958175659
-3.4378881454467773
-3.503690719604492
-3.803989887237549
-3.803391695022583
-3.7980077266693115
-3.896113634109497
-3.9248273372650146
-4.1144585609436035
-4.380062103271484
-4.562514781951904
-4.680959701538086
-4.687539577484131
-4.909473896026611
-4.791627407073975
-4.923830986022949
-4.65523624420166
-4.403990268707275
-4.445864677429199
-4.628915309906006
-4.820939540863037
-5.112265586853027
-5.43410062789917
-5.528616905212402
-5.334200382232666
-4.972285747528076
-4.490131855010986
-4.00738000869751
-3.8422751426696777
-3.7160537242889404
-3.6221354007720947
-3.411566972732544
-3.2303104400634766
-3.226123094558716
-3.2231321334838867
-2.9629125595092773
-2.7385854721069336
-2.42093825340271
-2.310868501663208
-2.228316068649292
-2.0614168643951416
-1.4841482639312744
-1.2454642057418823
-1.0869396924972534
-1.007378339767456
-0.8273184299468994
1.0205389261245728
-0.8685945868492126
-1.2975081205368042
-1.2921241521835327
-0.9308080077171326
-0.7447660565376282
-0.3732803463935852
0.007178467698395252
0.12681959569454193
0.18305093050003052
0.5174478888511658
0.7405785918235779
0.9804590940475464
1.0695916414260864
1.2729816436767578
1.511067509651184
1.5960127115249634
1.6348960399627686
1.7844475507736206
1.9429720640182495
2.4879374504089355
2.3946170806884766
2.4849462509155273
2.4945178031921387
2.5848467350006104
2.8043885231018066
3.0281171798706055
3.1788647174835205
3.3475589752197266
3.545564889907837
3.669991970062256
3.733999729156494
3.861417531967163
4.254438400268555
4.165904521942139
4.228715896606445
4.299304008483887
4.35673189163208
4.441079139709473
4.66361141204834
4.7581281661987305
4.8747782707214355
4.961517810821533
5.075775623321533
5.143372535705566
5.232504844665527
5.2731828689575195
5.230112075805664
5.312066555023193
5.3353962898254395
5.399404525756836
5.443671703338623
5.478367805480957
5.577071189880371
5.624927520751953
5.682953834533691
5.721837520599365
5.803193092346191
5.920441627502441
5.9916276931762695
6.110671043395996
6.1914286613464355
6.364310264587402
6.428318023681641
6.579065799713135
6.63769006729126
6.749554634094238
6.811767578125
6.888936519622803
6.915257930755615
6.9038920402526855
6.914061069488525
6.913463115692139
6.826124668121338
6.831508636474609
6.866204738616943
6.87936544418335
6.93320369720459
6.8823561668396
6.799804210662842
6.707679748535156
6.69272518157959
6.615556240081787
6.521039962768555
6.487540245056152
6.374479293823242
6.212365627288818
6.109474182128906
5.9336018562316895
5.900700092315674
5.664409637451172
5.220540523529053
5.061418533325195
4.6372904777526855
3.64546537399292
3.9212381839752197
4.208975315093994
4.486542701721191
4.313661098480225
4.048655986785889
3.9050867557525635
3.717848062515259
3.352942705154419
3.108874797821045
3.0616164207458496
3.008376359939575
2.730210542678833
2.7912278175354004
2.898904800415039
2.751147985458374
2.745166063308716
2.667997360229492
2.6673989295959473
2.5567309856414795
2.599802017211914
2.507678270339966
2.483750104904175
2.1750760078430176
2.215155601501465
2.276770830154419
2.3264219760894775
2.612962484359741
2.6213371753692627
2.523829936981201
2.624328136444092
2.5710880756378174
2.4945178031921387
2.551945447921753
2.678764820098877
2.5154547691345215
2.606382131576538
-1.0325030088424683
0.46719861030578613
2.562114715576172
2.2504496574401855
2.093719720840454
2.3300108909606934
2.3952155113220215
2.204986095428467
2.297109842300415
2.444268226623535
2.197807550430298
1.7114663124084473
1.8765710592269897
2.0129621028900146
1.5900306701660156
1.121037483215332
1.3609179258346558
1.672582983970642
1.5732810497283936
1.01814603805542
0.19561325013637543
-0.32602205872535706
-0.48035916686058044
-0.6293123364448547
-1.265204906463623
-1.195214867591858
-1.4638092517852783
-1.292722463607788
-1.4333007335662842
-1.4943177700042725
-1.6342979669570923
-2.0057835578918457
-2.084746837615967
-2.2360928058624268
-2.162513494491577
-2.0416760444641113
-1.5409778356552124
-1.2699906826019287
-1.1449655294418335
-0.942173957824707
-0.973280668258667
-0.4426721930503845
-0.380458801984787
-0.5204389095306396
-0.8177471160888672
-0.6035895347595215
-0.05802595242857933
-0.01136590726673603
-0.1136590838432312
-0.2715853452682495
-0.20159532129764557
-0.12741780281066895
-0.3361915946006775
-0.3415754437446594
-0.17108681797981262
-0.37148571014404297
-0.6245267391204834
-0.8584251999855042
-1.2269197702407837
-1.4937195777893066
-1.7970099449157715
-2.115255117416382
-2.0177478790283203
-1.9722840785980225
-2.002194404602051
-2.111665964126587
-2.2438693046569824
-2.3162524700164795
-2.4939193725585938
-2.5459632873535156
-2.654836893081665
-2.7637102603912354
-2.8929226398468018
-3.039483070373535
-3.218346357345581
-3.273381233215332
-3.3170502185821533
-3.3678977489471436
-3.4301114082336426
-3.527618885040283
-3.589233875274658
-3.638286828994751
-3.7232320308685303
-3.8470606803894043
-3.8285160064697266
-3.9391844272613525
-4.0420756340026855
-4.125226020812988
-4.221537113189697
-4.278965473175049
-4.257429599761963
-4.431507110595703
-4.564907073974609
-4.794020175933838
-5.026721954345703
-5.005186557769775
-4.88973331451416
-4.89272403717041
-4.295116901397705
-4.554139614105225
-4.77248477935791
-4.989633083343506
-5.0907301902771
-5.030311584472656
-5.14157772064209
-5.210969924926758
-5.0943193435668945
-4.989633083343506
-4.917250633239746
-5.219943046569824
-5.338985443115234
-5.322235584259033
-5.100899696350098
-5.00877571105957
-4.962714195251465
-5.395815372467041
-5.31685209274292
-4.882554531097412
-4.754538536071777
-4.652843952178955
-4.90528678894043
-4.945366382598877
-4.913661479949951
-4.917849063873291
-5.194818019866943
-5.197210788726807
-5.359324932098389
-6.207580089569092
-7.396812915802002
-7.3884382247924805
-6.273383140563965
-5.5860443115234375
-5.117051124572754
-5.14576530456543
-4.803591728210449
-4.423730850219727
-4.208376884460449
-4.073780536651611
-3.6161530017852783
-3.276970386505127
-3.238685369491577
-3.1764721870422363
-3.1148569583892822
-2.3617160320281982
-1.2029916048049927
-0.9792627096176147
-1.3004992008209229
-1.2879369258880615
-1.592423439025879
-1.1575279235839844
-1.028315544128418
-1.1240284442901611
1.6989041566848755
-0.40378880500793457
-0.2560320198535919
0.6137590408325195
1.0085747241973877
1.0372885465621948
1.1724830865859985
2.0207386016845703
3.0957143306732178
2.5633113384246826
2.200798511505127
2.3365912437438965
2.850450038909912
2.800200939178467
3.1615171432495117
3.1208388805389404
3.0335006713867188
3.153740167617798
3.3296127319335938
3.056830883026123
2.8935208320617676
3.112464189529419
3.5431721210479736
3.971487283706665
4.128815650939941
4.431507110595703
4.881956577301025
5.014159679412842
4.9429731369018555
4.953741073608398
5.414957523345947
5.455037593841553
5.414360046386719
5.145166873931885
4.929812908172607
4.274777889251709
3.9942193031311035
3.9278182983398438
4.073780536651611
4.511666774749756
5.205585956573486
5.948556900024414
6.5904316902160645
7.159924030303955
7.6767730712890625
8.121838569641113
8.434101104736328
8.720044136047363
8.816953659057617
8.815756797790527
8.964112281799316
9.067004203796387
9.155536651611328
9.17587661743164
9.253643989562988
9.320043563842773
9.355936050415039
9.123832702636719
9.056235313415527
8.986245155334473
8.978468894958496
8.86780071258545
8.843873023986816
8.715856552124023
8.471190452575684
8.211569786071777
7.968697547912598
7.658228874206543
7.325028419494629
7.109076023101807
6.646064758300781
6.181258678436279
5.860023021697998
5.6865434646606445
5.648856163024902
5.5453667640686035
5.314458847045898
5.054239273071289
4.60857629776001
4.380062103271484
4.378865718841553
4.30289363861084
4.30289363861084
4.06540584564209
3.9254257678985596
3.823730707168579
3.445664882659912
2.8654050827026367
3.318246841430664
3.4612181186676025
3.500101327896118
3.4749765396118164
3.4133615493774414
3.5228333473205566
3.6011979579925537
3.424727439880371
3.406780958175659
3.397209882736206
3.252444267272949
3.284149169921875
3.259622812271118
3.300898790359497
3.366103172302246
3.4265220165252686
3.449253797531128
3.479762554168701
3.4265220165252686
3.2542388439178467
3.068197011947632
2.8600213527679443
2.781656265258789
2.8486552238464355
2.95393967628479
2.9970104694366455
2.7906293869018555
2.746960401535034
2.665006399154663
2.276770830154419
2.163709878921509
1.9615163803100586
1.5230315923690796
1.274178147315979
1.1401798725128174
0.9122636914253235
0.49232324957847595
0.37148571014404297
0.20338992774486542
-2.7014968395233154
-1.1533405780792236
-0.25064817070961
-0.41216370463371277
-0.6526423692703247
-0.33918261528015137
-0.22612175345420837
-0.6095715761184692
-0.38703906536102295
-0.06340979784727097
0.02871387079358101
0.04666004329919815
-0.07417750358581543
-0.0975075215101242
-0.11186446249485016
-0.035892341285943985
-0.03290130943059921
0.1411765217781067
0.22791635990142822
0.3242274820804596
0.3475574851036072
0.44805604219436646
0.5491528511047363
0.6867401003837585
0.5473582148551941
0.5449653267860413
0.5754738450050354
0.4821537733078003
0.747757077217102
0.8709874749183655
0.9882357716560364
1.0163514614105225
0.729810893535614
0.13938193023204803
-0.14057832956314087
-0.003589233849197626
0.0077766734175384045
0.0023928226437419653
0.17647066712379456
0.4731806516647339
0.5156532526016235
0.6263213753700256
0.5766702890396118
0.48873403668403625
0.5264209508895874
0.37986060976982117
0.2021935135126114
0.18963119387626648
0.09870394319295883
0.1908276081085205
0.13280165195465088
0.3756731152534485
0.41575291752815247
0.43130627274513245
0.5491528511047363
0.48514479398727417
0.47736814618110657
0.32961133122444153
0.14715859293937683
0.13519449532032013
0.04307080805301666
0.243469700217247
0.19381862878799438
0.1782652884721756
-0.034695930778980255
-0.30628129839897156
-0.3684946894645691
-0.3966103494167328
-0.5754738450050354
-0.7142575979232788
-0.8195417523384094
-1.079761266708374
-1.239482045173645
-1.4243276119232178
-1.6815561056137085
-1.8340984582901
-2.1678972244262695
-2.2983062267303467
-2.513660192489624
-2.675773859024048
-2.9479575157165527
-3.160320520401001
-3.4893336296081543
-3.6873395442962646
-3.896711587905884
-4.102494716644287
-4.232903480529785
-4.3758745193481445
-4.518247604370117
-4.752744197845459
-4.837689399719238
-5.016552925109863
-5.200799942016602
-5.3940205574035645
-5.315057277679443
-5.474778175354004
-5.640481472015381
-5.6386871337890625
-5.711667537689209
-5.656034469604492
-5.632704257965088
-5.544170379638672
-5.658427715301514
-5.399404525756836
-5.4281182289123535
-5.639284610748291
-5.395216941833496
-4.989035606384277
-4.384249687194824
-3.699902057647705
-3.1100711822509766
-4.383052825927734
-4.6995038986206055
-4.628915309906006
-4.295116901397705
-3.888935089111328
-3.621537208557129
-3.2709884643554688
-2.9324042797088623
-2.8761727809906006
-2.847459077835083
-2.922832727432251
-2.6907289028167725
-2.2576282024383545
-1.9680967330932617
-1.8323040008544922
-1.4656038284301758
-1.2819548845291138
-1.2131611108779907
-0.9367901086807251
-0.8051849007606506
-0.3038884997367859
0.3194418251514435
1.0091729164123535
0.6915257573127747
0.47198429703712463
0.31824541091918945
0.6753742098808289
0.7549355626106262
0.24107688665390015
-0.11485548317432404
-0.034695930778980255
0.1902294009923935
0.5946164131164551
0.3978067636489868
0.6035895347595215
0.8045865893363953
0.9625129103660583
1.2586246728897095
1.5792630910873413
1.8747764825820923
2.0368902683258057
2.163709878921509
2.1505494117736816
2.242672920227051
2.376671075820923
2.620738983154297
2.7607192993164062
2.743969440460205
2.4604198932647705
2.3952155113220215
2.268994092941284
2.321636199951172
2.3294129371643066
2.2785654067993164
2.366501808166504
2.651247262954712
2.9455647468566895
2.6967110633850098
2.3946170806884766
3.298506021499634
1.9728822708129883
1.0510473251342773
0.6532406210899353
1.1120643615722656
1.4147562980651855
1.9178473949432373
2.447857618331909
2.5872395038604736
2.6596224308013916
2.7667012214660645
3.2243285179138184
3.3966119289398193
3.452843189239502
3.489931583404541
3.6855452060699463
3.6227335929870605
3.576073169708252
3.463012456893921
3.476173162460327
3.5168514251708984
3.521038293838501
3.3367910385131836
3.249453067779541
3.253042459487915
3.2691938877105713
3.311068296432495
3.249453067779541
3.2889344692230225
3.4372897148132324
3.5611181259155273
3.590430498123169
3.6257245540618896
3.7405800819396973
3.669393539428711
3.46600341796875
3.4989049434661865
3.5742788314819336
3.6819560527801514
3.7950167655944824
3.9523448944091797
3.8919260501861572
3.6526436805725098
3.7226338386535645
3.8081774711608887
3.944568157196045
3.8835511207580566
3.975674867630005
3.954737663269043
3.9667017459869385
3.800400495529175
3.8297126293182373
3.9882373809814453
3.9595232009887695
3.969094753265381
3.899702548980713
3.916452407836914
3.919443368911743
3.814159393310547
3.7537405490875244
3.9044883251190186
3.8542392253875732
3.7118661403656006
3.858426570892334
3.920041799545288
3.917050838470459
3.8745782375335693
3.9421753883361816
3.857828378677368
3.8799619674682617
3.920639991760254
3.9900317192077637
3.981656789779663
3.9314074516296387
4.032504558563232
4.261617183685303
4.311268329620361
4.340579986572266
4.258028030395508
4.235894680023193
4.241277694702148
4.071387767791748
4.04985237121582
3.971487283706665
3.790231227874756
3.7441694736480713
3.4241292476654053
3.3505499362945557
3.349353551864624
2.6913270950317383
0.9451649785041809
2.5220348834991455
3.2548367977142334
3.383451223373413
2.943171977996826
2.424527645111084
2.4053850173950195
2.462812662124634
2.7906293869018555
9.164510726928711
9.839885711669922
6.552745342254639
3.6921255588531494
0.4061816334724426
-1.0151549577713013
-0.06819543987512589
1.3597214221954346
2.6985056400299072
3.835096597671509
4.240082263946533
3.683152198791504
2.6153552532196045
1.1748759746551514
-0.14835500717163086
-0.7680960893630981
-1.3609179258346558
-1.8083757162094116
-1.9064815044403076
-2.0039889812469482
-2.046461582183838
-1.9100706577301025
-2.129014015197754
-2.2791635990142822
-2.6566312313079834
1.4428720474243164
4.086342811584473
2.999403238296509
2.6177480220794678
-0.08434700220823288
-3.1214373111724854
-4.315455436706543
-4.35972261428833
-4.0797624588012695
-3.5545380115509033
-3.0717861652374268
-2.8654050827026367
-2.799602508544922
-2.641078233718872
-3.6849470138549805
-2.1026928424835205
1.9884356260299683
2.8432717323303223
2.3228328227996826
1.8508484363555908
0.19322043657302856
-1.2544372081756592
-1.179661512374878
-1.1910275220870972
0.1902294009923935
0.8817551136016846
1.110867977142334
0.9361919164657593
1.0097712278366089
2.386242389678955
2.6051855087280273
2.2271196842193604
1.9022939205169678
1.0205389261245728
0.0
0.09870394319295883
1.5936198234558105
1.8053847551345825
1.960319995880127
1.6995022296905518
1.3932209014892578
1.3752747774124146
2.2947170734405518
2.5561327934265137
2.362314224243164
2.1092731952667236
1.72941255569458
1.5672990083694458
1.944766640663147
1.3040882349014282
0.9894322156906128
0.7058826684951782
1.0947164297103882
2.1272192001342773
1.269392490386963
1.564307689666748
2.1966114044189453
2.2193429470062256
1.8987047672271729
1.179661512374878
0.4707878530025482
-0.2566302418708801
-0.869192898273468
-1.3489538431167603
-1.6432709693908691
-1.652243971824646
-1.2131611108779907
-0.9044870138168335
0.6969096064567566
0.46719861030578613
0.8291130661964417
1.3262219429016113
1.4949158430099487
1.7347965240478516
1.4117653369903564
0.851844847202301
0.43968114256858826
-0.5479563474655151
-0.7674978375434875
-1.4602199792861938
-2.0033907890319824
-2.5884358882904053
-1.9280169010162354
-2.076371908187866
-1.8113667964935303
-1.310070276260376
-1.179661512374878
-1.1850453615188599
-0.9708877801895142
-1.225723385810852
-1.5056836605072021
-2.527418851852417
-3.3864424228668213
-3.5473597049713135
-4.284947395324707
-5.067997932434082
-4.896313667297363
-5.202594757080078
-4.715056896209717
-4.397409439086914
-4.530211448669434
-4.362115859985352
-4.6540398597717285
-4.766502857208252
-4.913063049316406
-5.239683628082275
-5.417350769042969
-5.367101192474365
-5.6895341873168945
-5.501697540283203
-4.930411338806152
-5.059623718261719
-4.9669013023376465
-4.867001533508301
-5.187041282653809
-4.8777689933776855
-5.147560119628906
-4.807180881500244
-4.930411338806152
-4.968696117401123
-4.903491497039795
-5.383851051330566
-5.159523963928223
-4.931009292602539
-5.206183433532715
-5.016552925109863
-4.634897232055664
-4.53619384765625
-4.474577903747559
-4.136592388153076
-3.9625141620635986
-3.9332025051116943
-3.699902057647705
-3.43489670753479
-3.445066452026367
-3.2237303256988525
-3.0969107151031494
-2.813361167907715
-2.6596224308013916
-2.50289249420166
-2.228914260864258
-2.2055842876434326
-2.014756679534912
-1.9286150932312012
-1.5984054803848267
-1.454237937927246
-1.373480200767517
-1.066002607345581
-0.9978070855140686
-0.8231310248374939
-0.7950153350830078
-0.7603194117546082
-0.3810570240020752
-0.4366901218891144
2.1714866161346436
1.0378868579864502
0.46899324655532837
0.4420740008354187
0.6023931503295898
0.552742063999176
0.2356930375099182
0.2883351445198059
0.2991028428077698
0.4133601188659668
0.4061816334724426
0.527019202709198
0.8877372145652771
2.528017282485962
0.9930214285850525
0.5958128571510315
0.5383851528167725
1.0564311742782593
1.1527422666549683
1.3597214221954346
1.6707884073257446
1.8376877307891846
1.9106688499450684
2.015354871749878
2.242672920227051
2.4191439151763916
2.506481647491455
2.5710880756378174
2.6398816108703613
2.5902304649353027
2.668595552444458
2.7667012214660645
2.967698335647583
3.0101709365844727
3.1202406883239746
3.2207396030426025
3.129812002182007
3.2656047344207764
3.31884503364563
3.549154043197632
3.683152198791504
3.8524444103240967
4.045066833496094
4.130012035369873
4.417748928070068
4.289732933044434
4.680361270904541
4.989035606384277
5.0434722900390625
4.930411338806152
5.349753379821777
5.337191104888916
5.55852746963501
5.62253475189209
5.695516109466553
5.727819442749023
5.896512985229492
6.049056053161621
6.1118669509887695
6.100501537322998
6.255436420440674
6.519245624542236
6.5629143714904785
6.629315376281738
6.760322093963623
6.714260101318359
7.0785675048828125
7.029515266418457
7.040282249450684
7.141379356384277
7.1611199378967285
7.4434733390808105
7.0139617919921875
6.842276573181152
7.120441913604736
7.086344242095947
7.200601577758789
7.730013847351074
8.151748657226562
8.591429710388184
8.862417221069336
8.776872634887695
8.669795036315918
7.6121673583984375
6.898507595062256
6.235695838928223
5.103292465209961
4.36091947555542
5.127220630645752
5.68056058883667
4.66660213470459
2.5878379344940186
1.5613168478012085
1.3387843370437622
1.5463615655899048
1.4422738552093506
-4.8604207038879395
-5.138586521148682
-0.25004997849464417
0.4749753177165985
1.5696916580200195
0.84347003698349
-0.27338001132011414
0.6717849373817444
2.1511473655700684
3.1274192333221436
4.421936511993408
5.447858810424805
6.935596466064453
7.5643110275268555
9.078967094421387
8.912666320800781
9.22433090209961
8.11107063293457
6.549753189086914
5.504090309143066
4.038486480712891
4.432106018066406
5.114658355712891
4.65523624420166
3.538984775543213
3.8973100185394287
5.285147190093994
9.67777156829834
3.6807594299316406
0.02991028130054474
-1.0582258701324463
-0.001794616924598813
1.5427722930908203
1.7976080179214478
1.453041672706604
1.3507484197616577
2.0207386016845703
1.4572291374206543
1.1748759746551514
0.3726821541786194
0.22492533922195435
-0.023330021649599075
-1.2077772617340088
-2.076970100402832
-2.726621389389038
-2.8157541751861572
-3.157329559326172
-4.0217366218566895
-4.426124095916748
-4.724030494689941
-4.442873477935791
-5.121238708496094
-5.8061842918396
-6.454638957977295
-6.990631580352783
-6.095117092132568
-6.300900459289551
-6.396613121032715
-6.63888692855835
-6.294918537139893
-6.444469928741455
-6.475576400756836
-6.055037975311279
-5.894120693206787
-6.14417028427124
-6.182455539703369
-5.9569315910339355
-5.886343955993652
-5.794817924499512
-5.695516109466553
-5.595615863800049
-5.738587379455566
-5.8713884353637695
-6.048457622528076
-6.177670001983643
-6.245865345001221
-6.437889099121094
-6.369693756103516
-6.366104602813721
-6.259624004364014
-6.1842498779296875
-6.3571319580078125
-6.421139717102051
-6.422934532165527
-6.537191867828369
-6.657431125640869
-6.700501441955566
-6.830910682678223
-7.130611419677734
-7.058228492736816
-7.373482704162598
-7.406982421875
-7.591828346252441
-7.632506370544434
-7.825726509094238
-7.953742504119873
-7.705487251281738
-8.131409645080566
-7.616354942321777
-7.837092399597168
-7.774878978729248
-7.514061450958252
-7.610970497131348
-7.133602619171143
-7.17487907409668
-7.009774208068848
-6.926623344421387
-6.80040168762207
-6.449853420257568
-6.646064758300781
-6.116054534912109
-5.529813289642334
-5.292923927307129
-5.2151570320129395
-5.405386447906494
-4.861617565155029
-5.197809219360352
-4.941178798675537
-4.615755081176758
-4.347758769989014
-4.099503517150879
-3.6813576221466064
-3.4851462841033936
-3.0945181846618652
-2.9359934329986572
-2.5393831729888916
-2.3467609882354736
-2.8773691654205322
-2.8522446155548096
-2.592623233795166
-2.1337995529174805
-1.5469598770141602
-1.610967755317688
-1.3974084854125977
-0.9038887619972229
-0.5126622319221497
-0.27038899064064026
0.29312077164649963
0.41635116934776306
1.238285779953003
0.9954141974449158
1.3351950645446777
1.8167506456375122
2.3569302558898926
2.5190439224243164
3.0209386348724365
3.1238298416137695
3.390629768371582
3.646063804626465
3.6957147121429443
3.90568470954895
3.9942193031311035
4.243072986602783
4.339384078979492
4.4997029304504395
4.742574691772461
4.596014022827148
4.791627407073975
4.8197431564331055
4.88853645324707
4.901697158813477
4.863411903381348
4.907081127166748
4.835296154022217
4.811966419219971
4.767101287841797
4.734797954559326
4.734199523925781
4.661218643188477
4.696512699127197
4.679762840270996
4.546961307525635
4.528417110443115
4.429114818572998
4.353142738342285
4.2281174659729
4.136592388153076
4.111467361450195
4.003790378570557
3.8213376998901367
3.809971809387207
3.6885361671447754
3.675973892211914
3.7166519165039062
3.5946178436279297
3.5467615127563477
3.552743434906006
3.5300114154815674
3.5192439556121826
3.4785659313201904
3.4618163108825684
3.4725840091705322
3.535395622253418
3.466601848602295
3.4175491333007812
3.4402806758880615
3.4169507026672363
3.442075490951538
3.4540393352508545
3.428316593170166
3.469593048095703
3.431307554244995
3.3643085956573486
3.374478340148926
3.3864424228668213
3.410968542098999
3.3134610652923584
3.2470602989196777
3.211168050765991
3.191427230834961
3.1070802211761475
3.1208388805389404
3.1860435009002686
3.105883836746216
3.0478579998016357
3.0011980533599854
2.9754748344421387
2.878565788269043
2.8223342895507812
2.7146573066711426
2.6847469806671143
2.664407968521118
2.5124638080596924
2.510071039199829
2.4119651317596436
2.376072883605957
2.3156540393829346
2.176870346069336
2.1272192001342773
1.9680967330932617
2.021935224533081
1.832902193069458
1.8113667964935303
1.7593228816986084
1.6169497966766357
1.5828521251678467
1.5565310716629028
1.4327025413513184
1.5116658210754395
1.2843475341796875
1.463211178779602
1.246660590171814
1.384247899055481
1.1222338676452637
1.2191431522369385
1.3435698747634888
0.9900304079055786
1.1001002788543701
1.064207911491394
0.9014959931373596
1.1443674564361572
1.113858938217163
0.8656035661697388
0.5904290080070496
0.6532406210899353
0.6143571734428406
0.22911277413368225
-0.0807577595114708
-0.08673982322216034
0.9996016621589661
0.3690928816795349
0.3206382095813751
-0.06640082597732544
0.04007977619767189
0.12083754688501358
-0.09391827881336212
0.2356930375099182
0.17108681797981262
0.05024927482008934
-0.07238288968801498
-0.0807577595114708
0.7740781307220459
0.41994038224220276
0.5330013036727905
-0.1698903888463974
-0.19800607860088348
-0.13938193023204803
-0.11665011197328568
-0.41994038224220276
-0.10408779233694077
-0.12382856756448746
-0.4223332107067108
-0.6323033571243286
-0.7136593461036682
-0.5850451588630676
0.2554338276386261
-0.40797626972198486
-0.27338001132011414
-0.4127618968486786
-0.3655036687850952
-0.17228323221206665
0.7286145687103271
0.1782652884721756
-0.08793623000383377
-0.6831508874893188
-0.6921239495277405
-0.15314064919948578
-0.35054856538772583
-0.6658028364181519
-0.4977070987224579
0.9714860320091248
1.25144624710083
-0.38344985246658325
-1.00259268283844
-0.9996016621589661
-0.7393822073936462
-0.5126622319221497
-0.40019962191581726
-0.15732808411121368
-0.4019941985607147
-0.6364908218383789
-0.7561320066452026
-0.568295419216156
-0.664606511592865
-0.47258248925209045
-0.6658028364181519
-0.7860422134399414
-0.486939400434494
-0.7890332937240601
-0.7322037220001221
-0.5545367002487183
-0.8404789566993713
-0.7663014531135559
-0.8075776100158691
-0.7435696125030518
-0.9266205430030823
-0.8644072413444519
-1.0031908750534058
-1.083350419998169
-0.9690931439399719
-1.0001999139785767
-1.0109676122665405
-0.9517452120780945
-1.0193424224853516
-0.8470591902732849
-0.8697910308837891
-0.8338987231254578
-0.7740781307220459
-0.8673982620239258
-0.835693359375
-0.8470591902732849
-0.8632107973098755
-0.8578268885612488
-0.8769695162773132
-0.8793622851371765
-0.8799605965614319
-0.8075776100158691
-0.8997013568878174
-0.7740781307220459
-0.8943174481391907
-0.8344969153404236
-0.7567301392555237
-0.7399803996086121
-0.7070790529251099
-0.7830511927604675
-0.8572287559509277
-0.8380861282348633
-0.947557806968689
-0.8739784955978394
-0.8662018179893494
-0.94815593957901
-0.865005373954773
-0.9296115636825562
-1.00259268283844
-0.9858429431915283
-0.8255237936973572
-0.655035138130188
-0.5533401966094971
-0.6711867451667786
-0.7405785918235779
-0.7968099117279053
-0.924227774143219
-0.8344969153404236
-0.7704889178276062
-0.7782655358314514
-0.7417750358581543
-0.5874379873275757
-0.747757077217102
-0.6149554252624512
-0.5838487148284912
-0.5449653267860413
-0.4145565330982208
-0.4612165689468384
-0.3158526122570038
-0.22552353143692017
-0.1860419660806656
-0.13100703060626984
-0.08315058797597885
-0.031106693670153618
0.06580261886119843
0.06041877344250679
0.17108681797981262
0.13639087975025177
0.13100703060626984
0.18305093050003052
0.20817558467388153
0.27038899064064026
0.2907279431819916
0.34217363595962524
0.3607180118560791
0.40737804770469666
0.49710890650749207
0.5844469666481018
0.6610172390937805
0.6604190468788147
0.7651050686836243
0.7908278703689575
0.8979067206382751
0.9619146585464478
1.0325030088424683
1.191625714302063
1.274178147315979
1.3519448041915894
1.3298112154006958
1.3848460912704468
1.5487545728683472
1.659422516822815
1.7353945970535278
1.8239290714263916
1.83828604221344
1.8729819059371948
1.9740787744522095
2.0279171466827393
2.1056838035583496
2.1619153022766113
2.1379871368408203
2.20737886428833
2.292922258377075
2.33180570602417
2.324627161026001
2.400001287460327
2.3718855381011963
2.4269204139709473
2.420340061187744
2.4957141876220703
2.5465614795684814
2.5950162410736084
2.6356940269470215
2.6979076862335205
2.750549554824829
2.7846474647521973
2.8211379051208496
2.9078776836395264
3.0137600898742676
3.1250264644622803
3.228516101837158
3.3062827587127686
3.3990044593811035
3.562314748764038
3.6891345977783203
3.7944185733795166
3.9038901329040527
4.149154186248779
4.259822845458984
4.369892597198486
4.522435188293457
4.621138572692871
4.718646049499512
4.835296154022217
4.934000015258789
4.917849063873291
5.002195835113525
5.1182475090026855
5.08355188369751
5.12901496887207
5.13320255279541
5.182255268096924
5.151747703552246
5.1738810539245605
5.071588039398193
5.07816743850708
5.111069202423096
5.015954494476318
4.9848480224609375
4.969892501831055
4.923232555389404
4.9160542488098145
4.886144161224365
4.7712883949279785
4.741976261138916
4.782654285430908
4.685146808624268
4.65643310546875
4.6959147453308105
4.627718925476074
4.573880195617676
4.584648132324219
3.1034913063049316
3.613162040710449
4.329812526702881
4.494319438934326
4.386044025421143
4.161118507385254
3.9607198238372803
3.6705899238586426
3.6323046684265137
3.6430723667144775
3.5300114154815674
3.449253797531128
3.3750765323638916
3.322434425354004
3.211766004562378
3.053839921951294
3.022135019302368
3.0011980533599854
2.833700180053711
2.283949136734009
2.5004994869232178
2.4233312606811523
2.414358139038086
2.3126630783081055
2.4053850173950195
2.5160529613494873
2.239682197570801
1.9118653535842896
1.3615161180496216
1.5415760278701782
1.7730815410614014
1.9022939205169678
1.9040887355804443
1.8711872100830078
1.6683955192565918
1.4416755437850952
1.3818551301956177
1.097109079360962
0.9936195611953735
0.7603194117546082
0.6245267391204834
0.5395814776420593
0.2835494577884674
0.15493525564670563
-0.019142581149935722
-0.3756731152534485
-0.4570291042327881
-0.6759724020957947
-1.031306505203247
-1.0779666900634766
-1.3459627628326416
-1.4063814878463745
-1.8083757162094116
-1.7766708135604858
-2.0745770931243896
-2.3359930515289307
-2.699104070663452
-2.5537400245666504
-3.0622148513793945
-3.256631851196289
-3.5856447219848633
-3.7052857875823975
-3.8560338020324707
-4.36809778213501
-4.391427516937256
-4.777270317077637
-4.9334025382995605
-5.322834014892578
-5.539982795715332
-6.04367208480835
-6.15553617477417
-6.2602219581604
-6.732804775238037
-6.7178497314453125
-6.963113784790039
-7.1958160400390625
-7.198208332061768
-7.615756511688232
-7.586443901062012
-7.848458290100098
-8.044670104980469
-8.149953842163086
-8.343772888183594
-8.591429710388184
-8.555537223815918
-8.998807907104492
-8.84207820892334
-9.281161308288574
-9.360722541809082
-9.259027481079102
-9.509077072143555
-9.600005149841309
-9.629316329956055
-9.980463027954102
-9.78066349029541
-10.054640769958496
-10.241878509521484
-10.12463092803955
-10.393224716186523
-10.35912799835205
-10.38185977935791
-10.498509407043457
-10.313065528869629
-10.704889297485352
-10.456634521484375
-10.444671630859375
-10.463215827941895
-10.723434448242188
-10.654641151428223
-10.73539924621582
-10.689935684204102
-10.712069511413574
-10.53918743133545
-10.54098129272461
-10.514062881469727
-10.281360626220703
-10.415359497070312
-10.191629409790039
-9.949954986572266
-9.988240242004395
-9.618548393249512
-9.461220741271973
-9.460622787475586
-9.136993408203125
-9.120841979980469
-8.929415702819824
-8.857630729675293
-8.612366676330566
-8.621339797973633
-8.325228691101074
-8.13798999786377
-7.926823616027832
-7.642675399780273
-7.451848030090332
-7.296912670135498
-6.915257930755615
-6.6831536293029785
-6.364310264587402
-6.198607444763184
-5.816353797912598
-5.137988567352295
-4.334598064422607
-4.271188259124756
-4.149154186248779
-4.080958843231201
-3.802793502807617
-3.4444682598114014
-3.0095725059509277
-2.9276185035705566
-2.569293260574341
-2.128415822982788
-1.8047864437103271
-1.3286147117614746
-1.3124632835388184
-1.0671988725662231
-0.8745766878128052
-0.7268198728561401
-0.4504488408565521
-0.16869400441646576
0.10289137810468674
0.284147709608078
0.771087110042572
1.1623135805130005
3.9332025051116943
1.5409778356552124
0.93260258436203
1.095314621925354
1.646860122680664
1.9016958475112915
2.2606191635131836
2.6793630123138428
2.5298118591308594
2.4610180854797363
2.538186550140381
2.7672994136810303
3.0245280265808105
3.07836651802063
3.2865419387817383
3.6610188484191895
3.820141315460205
3.964907169342041
4.076771259307861
4.381856441497803
4.474577903747559
4.846662521362305
4.614558696746826
4.436891555786133
4.327419757843018
4.53619384765625
4.826921463012695
5.193621635437012
5.517848968505859
6.049654006958008
6.122635364532471
6.251847267150879
6.4833526611328125
6.884748935699463
7.46201753616333
7.702496528625488
7.929215908050537
8.21695327758789
8.478368759155273
8.987441062927246
8.737391471862793
8.705687522888184
9.049654960632324
9.059226989746094
9.111270904541016
9.418149948120117
10.04985523223877
10.17308521270752
10.313664436340332
10.549356460571289
10.598410606384277
10.84427261352539
11.084750175476074
11.34078311920166
11.440683364868164
11.481362342834473
11.626725196838379
11.690732955932617
11.782258987426758
11.92582893371582
11.940185546875
12.020943641662598
12.010174751281738
12.149558067321777
12.357134819030762
12.329617500305176
12.393027305603027
12.443275451660156
12.99063491821289
12.896716117858887
11.621341705322266
12.666407585144043
12.409777641296387
12.607782363891602
11.627922058105469
11.304292678833008
11.038090705871582
10.759925842285156
10.606186866760254
10.430314064025879
10.0343017578125
9.677172660827637
9.951749801635742
9.990034103393555
9.160922050476074
9.004191398620605
8.568697929382324
8.106285095214844
7.562515735626221
8.135597229003906
7.352545738220215
7.226922512054443
6.923632621765137
7.368697166442871
6.488736629486084
6.014359951019287
5.96590518951416
5.571089267730713
4.887340545654297
4.846662521362305
4.474577903747559
4.082155704498291
4.269992351531982
3.4683964252471924
3.528815269470215
3.73041033744812
3.132802963256836
3.253042459487915
3.4462625980377197
2.9288148880004883
3.1148569583892822
3.1615171432495117
2.65423846244812
2.833101987838745
2.8630125522613525
1.2891331911087036
-0.19740788638591766
2.5010979175567627
3.3445677757263184
3.3786656856536865
2.830709218978882
3.6335012912750244
3.642474412918091
2.971287488937378
2.042872428894043
1.2819548845291138
0.1986043006181717
-0.7447660565376282
-1.4093725681304932
-2.0859432220458984
-2.4915266036987305
-3.425924062728882
-3.5503506660461426
-3.500699758529663
-3.31166672706604
-3.122035503387451
-2.844467878341675
-2.791826009750366
-2.956930637359619
-3.1106693744659424
-3.2536404132843018
-1.150349497795105
-2.7768709659576416
-2.799004316329956
-3.4713873863220215
-2.7110681533813477
-3.0000014305114746
-2.9521450996398926
-4.5026936531066895
-4.060021877288818
-3.970889091491699
-4.1868414878845215
-4.299902439117432
-5.105685710906982
-5.7966132164001465
-6.2811598777771
-6.484549522399902
-5.451448440551758
-5.529813289642334
-5.336592674255371
-5.54177713394165
-4.644468784332275
-3.7286159992218018
-3.916452407836914
-4.143770694732666
-4.306482315063477
-3.4570305347442627
-4.281357765197754
-4.588237285614014
-4.688137531280518
-4.341178894042969
-3.4857444763183594
-3.61435866355896
-3.559323787689209
-3.7094733715057373
-3.7639100551605225
-3.5132617950439453
-4.1042890548706055
-4.517050743103027
-4.323232650756836
-3.94516658782959
-4.180261135101318
-3.445664882659912
-3.975674867630005
-3.6185462474823
-3.3966119289398193
-2.7625136375427246
-2.9623143672943115
-3.0927231311798096
-2.5908288955688477
-3.2482569217681885
-3.4277184009552
-3.725026845932007
-3.2201411724090576
-2.9252257347106934
-3.8249270915985107
-3.7286159992218018
-3.789034605026245
-3.215355396270752
-3.6436705589294434
-3.0957143306732178
-3.0370900630950928
-3.081357479095459
-2.6500513553619385
-3.3026936054229736
-2.988635540008545
-3.279961585998535
-3.558725595474243
-3.452244758605957
-3.3481569290161133
-3.053241729736328
-3.2685959339141846
-2.9832518100738525
-2.8833510875701904
-3.263810157775879
-3.1902308464050293
-3.0550363063812256
-3.2446677684783936
-3.0376882553100586
-3.122633695602417
-2.9970104694366455
-2.8737800121307373
-3.1968109607696533
-3.1818559169769287
-3.249453067779541
-2.9688947200775146
-3.4444682598114014
-3.0963125228881836
-2.5806591510772705
-2.8803601264953613
-2.465803623199463
-2.5322046279907227
-2.7284159660339355
-2.2815563678741455
-2.7260231971740723
-2.2540390491485596
-2.3443679809570312
-1.9076780080795288
-1.9064815044403076
-1.6199408769607544
-1.37587308883667
-1.3980066776275635
-1.0773683786392212
-0.9960124492645264
-0.7148558497428894
-0.680159866809845
-0.38225340843200684
-0.41994038224220276
-0.11724831163883209
-0.07238288968801498
0.2721835970878601
0.2799602746963501
0.7639086246490479
0.9858429431915283
1.1042877435684204
1.0241280794143677
1.3435698747634888
1.5577276945114136
1.8239290714263916
1.9196420907974243
2.0482561588287354
2.183450698852539
2.2947170734405518
2.7296125888824463
2.7894327640533447
2.833101987838745
2.8803601264953613
2.950948476791382
3.0789647102355957
3.1896328926086426
3.321835994720459
3.3882367610931396
3.617349624633789
3.6670007705688477
3.8219361305236816
3.8709890842437744
3.9870407581329346
3.9738800525665283
4.084547996520996
4.171886444091797
4.359125137329102
4.456034183502197
4.571487903594971
4.724030494689941
4.792823791503906
4.95493745803833
4.953143119812012
5.059025287628174
5.143970489501953
5.210969924926758
5.313262462615967
5.49092960357666
5.6859450340271
5.743372440338135
5.734997749328613
5.559124946594238
5.5938215255737305
5.611767768859863
5.633302688598633
5.7720866203308105
5.866602897644043
5.897709369659424
5.944369792938232
6.008975505828857
5.893521785736084
5.983850955963135
5.983253002166748
6.022734642028809
6.077769756317139
7.415955543518066
6.552745342254639
5.928815841674805
5.605785369873047
5.849255084991455
6.059823036193848
5.9569315910339355
6.182455539703369
6.081358432769775
5.842674255371094
5.7750773429870605
5.615954875946045
5.617150783538818
5.578268051147461
5.4759745597839355
5.415555953979492
5.415555953979492
5.207380294799805
5.097310543060303
5.002793788909912
5.023132801055908
4.912464618682861
4.805386066436768
4.639084815979004
4.3926239013671875
4.301098823547363
4.105485439300537
4.156930923461914
3.9463624954223633
3.8225340843200684
3.8255250453948975
3.517449140548706
3.4540393352508545
3.3505499362945557
3.1860435009002686
3.4929230213165283
2.953341484069824
2.675175428390503
2.5764715671539307
2.334796905517578
2.389831781387329
2.23848557472229
2.172682762145996
2.234896183013916
1.895115613937378
2.0159530639648438
1.7892332077026367
1.6247265338897705
1.6271194219589233
1.2921241521835327
1.4243276119232178
1.1401798725128174
1.1778669357299805
1.076770305633545
0.8925228118896484
0.8620143532752991
0.7022934556007385
0.6197410225868225
0.4666004478931427
0.3858426511287689
0.2524428069591522
0.26919257640838623
0.18723836541175842
-0.03888336941599846
0.03529413044452667
-0.10887343436479568
-0.1094716340303421
-0.2548356056213379
-0.21595224738121033
-0.2871387302875519
-0.5066801905632019
-0.3613162338733673
-0.3044866621494293
0.23210380971431732
0.18903300166130066
0.20039889216423035
0.08554340898990631
-0.33080774545669556
-0.9894322156906128
-1.5284154415130615
-2.1296122074127197
-2.5262224674224854
-2.54117751121521
-2.580061197280884
-2.745166063308716
-2.771486759185791
-2.824129104614258
-2.7499513626098633
-2.665604591369629
-1.394417405128479
-0.631106972694397
-1.1437692642211914
-0.6807580590248108
-0.6221339106559753
-0.8195417523384094
-1.4261223077774048
-1.7533408403396606
-2.3156540393829346
-1.7042880058288574
-1.7718852758407593
-1.3094723224639893
-0.37148571014404297
-0.6191428899765015
-0.565902590751648
-1.2179466485977173
-1.6845470666885376
-1.9459630250930786
-1.197009563446045
-1.581655740737915
-1.4344972372055054
-1.4799607992172241
-1.1521440744400024
-0.3164508044719696
-0.6173482537269592
-0.8374879360198975
-0.9200403094291687
0.007178467698395252
-0.24167509377002716
-0.09631111472845078
0.14895321428775787
0.37866419553756714
0.3607180118560791
0.20997019112110138
0.12023933231830597
0.2315056025981903
0.24466611444950104
0.5515456795692444
0.6789634227752686
0.5784648656845093
0.5952146053314209
0.6664011478424072
0.6538388133049011
0.7968099117279053
1.425524115562439
0.9266205430030823
1.4129618406295776
1.5762720108032227
1.690529227256775
1.6857435703277588
2.0243279933929443
2.341975212097168
1.9621145725250244
1.7168503999710083
1.610967755317688
2.166102886199951
2.18464732170105
2.4646074771881104
2.0207386016845703
2.1403799057006836
2.441875457763672
2.246262550354004
2.451446771621704
2.6057839393615723
2.279762029647827
2.190629243850708
2.4987051486968994
2.321636199951172
2.338386058807373
2.620738983154297
2.740380048751831
2.351546287536621
2.4161524772644043
2.248655080795288
2.2887349128723145
2.166700839996338
2.345564365386963
2.1547367572784424
2.114656925201416
2.15354061126709
2.0506489276885986
2.1092731952667236
2.002194404602051
1.9010976552963257
1.996212363243103
2.0213370323181152
1.9232312440872192
1.870589256286621
1.886142611503601
1.8490536212921143
1.7407784461975098
1.7964116334915161
1.7114663124084473
1.6755740642547607
1.6229318380355835
1.6037894487380981
1.5882360935211182
1.540379524230957
1.6241284608840942
1.5607186555862427
1.5966109037399292
1.5619149208068848
1.6085751056671143
1.636690616607666
1.685145378112793
1.6043875217437744
1.6169497966766357
1.5750755071640015
1.5050854682922363
1.5936198234558105
1.591825246810913
1.466800332069397
1.4482558965682983
1.4590237140655518
1.3262219429016113
1.3573286533355713
1.3369897603988647
1.1994023323059082
1.2388838529586792
1.2239288091659546
1.1001002788543701
1.121037483215332
1.038485050201416
1.0085747241973877
1.0336995124816895
1.0019944906234741
1.033101201057434
0.9367901086807251
0.9463613033294678
0.885344386100769
0.8464610576629639
0.8458628058433533
0.7692924737930298
0.8608179092407227
0.7794619798660278
0.7142575979232788
0.7136593461036682
0.7076773047447205
0.6909275650978088
0.6867401003837585
0.6329016089439392
0.6293123364448547
0.5611169338226318
0.6454639434814453
0.5473582148551941
0.5766702890396118
0.5940182209014893
0.5228317379951477
0.5712864398956299
0.5796613097190857
0.5401796698570251
0.5862415432929993
0.5521438717842102
0.5066801905632019
0.4025924503803253
0.519242525100708
0.5126622319221497
0.4779663383960724
0.48035916686058044
0.5425724983215332
0.4253242611885071
0.5288137793540955
0.41934219002723694
0.5246263742446899
0.41216370463371277
0.40857449173927307
0.413958340883255
0.3966103494167328
0.47018963098526
0.41515472531318665
0.39900317788124084
0.4378865361213684
0.3655036687850952
0.3888336718082428
0.4007977843284607
0.3948157727718353
0.44805604219436646
0.36311084032058716
0.3684946894645691
0.3972086012363434
0.38763725757598877
0.39062830805778503
0.41216370463371277
0.36191439628601074
0.3050849139690399
0.2961117923259735
0.3002992272377014
0.2961117923259735
0.2991028428077698
0.3373880088329315
0.24406792223453522
0.29790642857551575
0.26979073882102966
0.27696919441223145
0.26620152592658997
0.25423741340637207
0.24227328598499298
0.25363919138908386
0.2392822504043579
0.2955136001110077
0.25304099917411804
0.24945177137851715
0.23270200192928314
0.20937198400497437
0.24107688665390015
0.22193430364131927
0.21296121180057526
0.24885354936122894
0.3164508044719696
0.3002992272377014
0.34636107087135315
0.3517449200153351
0.3672982454299927
0.4127618968486786
0.44745784997940063
0.46002015471458435
0.4630112051963806
0.46899324655532837
0.5108676552772522
0.48394834995269775
0.5024927854537964
0.558125913143158
0.5623133182525635
0.5503491759300232
0.5760720372200012
0.6059823036193848
0.6203392744064331
0.6137590408325195
0.5491528511047363
0.6155536770820618
0.5934200286865234
0.6113661527633667
0.6245267391204834
0.5796613097190857
0.5670989155769348
0.5904290080070496
0.565902590751648
0.5862415432929993
0.5892325639724731
0.5718846321105957
0.6029912829399109
0.6418746709823608
0.6095715761184692
0.6107680201530457
0.6430710554122925
0.6119644045829773
0.6023931503295898
0.5814558863639832
0.589830756187439
0.5760720372200012
0.5772684812545776
0.5982056856155396
0.568295419216156
0.5946164131164551
0.589830756187439
0.5994020700454712
0.5964110493659973
0.5742774605751038
0.5593222379684448
0.5940182209014893
0.5958128571510315
0.5742774605751038
0.5150550603866577
0.5814558863639832
0.5670989155769348
0.5330013036727905
0.5383851528167725
0.5688936114311218
0.5641078948974609
0.5862415432929993
0.5353941321372986
0.6029912829399109
0.5491528511047363
0.5300102829933167
0.5641078948974609
0.5712864398956299
0.5736792683601379
0.5802595019340515
0.543170690536499
0.5832505226135254
0.6323033571243286
0.6203392744064331
0.5814558863639832
0.696311354637146
0.680159866809845
0.7064809203147888
0.7004988193511963
0.7339983582496643
0.7345964908599854
0.7334001660346985
0.763310432434082
0.7645068168640137
0.8081759214401245
0.8685945868492126
0.8398807644844055
0.869192898273468
0.932004451751709
0.8967103362083435
0.9768698215484619
0.9631111025810242
1.0007981061935425
1.0558329820632935
1.043868899345398
1.1300104856491089
1.121037483215332
1.1641082763671875
1.2388838529586792
1.2293126583099365
1.2987045049667358
1.3698910474777222
1.3794622421264648
1.4159529209136963
1.456032633781433
1.4536397457122803
1.4626128673553467
1.5296119451522827
1.5332012176513672
1.5445669889450073
1.5361921787261963
1.6414762735366821
1.6307085752487183
1.6821542978286743
1.717448353767395
1.7635102272033691
1.6785650253295898
1.771286964416504
1.8251254558563232
1.7754744291305542
1.8394824266433716
1.7982062101364136
1.7635102272033691
1.7916259765625
1.8281164169311523
1.7216358184814453
1.82273268699646
1.7976080179214478
1.743171215057373
1.7748762369155884
1.755733609199524
1.7126628160476685
1.7850456237792969
1.7258234024047852
1.7282161712646484
1.7700905799865723
1.7653049230575562
1.770688772201538
1.7581264972686768
1.752144455909729
1.777867317199707
1.7688941955566406
1.7641085386276245
1.7635102272033691
1.771286964416504
1.7539390325546265
1.770688772201538
1.7922241687774658
1.8125630617141724
1.7042880058288574
1.7509479522705078
1.755135416984558
1.716252088546753
1.7874386310577393
1.752144455909729
1.6181464195251465
1.747358798980713
1.7575281858444214
1.7060824632644653
1.6941183805465698
1.6259229183197021
1.6498513221740723
1.6151552200317383
1.5738790035247803
1.6079767942428589
1.5260226726531982
1.4662021398544312
1.476969838142395
1.4488540887832642
1.4356937408447266
1.4614163637161255
1.3818551301956177
1.3411771059036255
1.293320655822754
1.2975081205368042
1.274178147315979
1.2951152324676514
1.2580264806747437
1.2616157531738281
1.2161520719528198
1.2191431522369385
1.1904292106628418
1.1228320598602295
1.119242787361145
1.0941181182861328
1.0917253494262695
1.0271191596984863
1.0055837631225586
0.9840483665466309
0.9391829371452332
0.9266205430030823
0.9314061999320984
0.9254242181777954
0.8931210041046143
0.8823533058166504
0.8865407705307007
0.8679963946342468
0.853639543056488
0.8679963946342468
0.8350951075553894
0.8255237936973572
0.8500502109527588
0.8159525394439697
0.8105686902999878
0.7495517134666443
0.755533754825592
0.755533754825592
0.7812566161155701
0.7824530005455017
0.8045865893363953
0.755533754825592
0.7501499056816101
0.7615157961845398
0.7489534616470337
0.7405785918235779
0.687936544418335
0.7154539823532104
0.6675975322723389
0.7166503667831421
0.704088032245636
0.7130611538887024
0.695713222026825
0.7076773047447205
0.6975077986717224
0.6454639434814453
0.704088032245636
0.7130611538887024
0.6891329288482666
0.7357929944992065
0.7423732876777649
0.7310073375701904
0.7004988193511963
0.7537391185760498
0.7345964908599854
0.760917603969574
0.7621140480041504
0.7962117195129395
0.7926225662231445
0.8081759214401245
0.7740781307220459
0.7968099117279053
0.760917603969574
0.7692924737930298
0.8620143532752991
0.8548358678817749
0.9236295223236084
0.9391829371452332
0.9625129103660583
0.9846464991569519
1.0325030088424683
1.0516455173492432
1.0947164297103882
1.114457130432129
1.1294121742248535
1.150349497795105
1.1826525926589966
1.189831018447876
1.2299108505249023
1.2346965074539185
1.2311073541641235
1.2095719575881958
1.262213945388794
1.31365966796875
1.3202399015426636
1.3016955852508545
1.332203984260559
1.3507484197616577
1.3543376922607422
1.363310694694519
1.3962119817733765
1.4494524002075195
1.4285151958465576
1.4841482639312744
1.4608182907104492
1.4392828941345215
1.4877374172210693
1.5032907724380493
1.5170495510101318
1.4931213855743408
1.5355939865112305
1.5200406312942505
1.518246054649353
1.5044872760772705
1.5050854682922363
1.5158531665802002
1.4656038284301758
1.5152548551559448
1.511067509651184
1.4679967164993286
1.4961124658584595
1.5062819719314575
1.469791293144226
1.4608182907104492
1.4165509939193726
1.4105689525604248
1.4039887189865112
1.4093725681304932
1.3567304611206055
1.3746765851974487
1.3244273662567139
1.310070276260376
1.289731502532959
1.2747762203216553
1.2669994831085205
1.1982059478759766
1.212562918663025
1.2077772617340088
1.1874382495880127
1.1533405780792236
1.098903775215149
1.112662434577942
1.0636096000671387
1.0701899528503418
1.038485050201416
1.0091729164123535
0.9379864931106567
0.9068797826766968
0.8913264274597168
0.8805587291717529
0.8793622851371765
0.8470591902732849
0.8470591902732849
0.8003992438316345
0.8033902645111084
0.7968099117279053
0.7142575979232788
0.7525427341461182
0.6789634227752686
0.6681957244873047
0.6933203339576721
0.6687938570976257
0.6622136831283569
0.6287141442298889
0.6149554252624512
0.6532406210899353
0.6137590408325195
0.5958128571510315
0.5868397355079651
0.5599205493927002
0.5545367002487183
0.5407779812812805
0.5808576941490173
0.6173482537269592
0.6430710554122925
0.6305087208747864
0.6203392744064331
0.6538388133049011
0.597607433795929
0.6149554252624512
0.6795615553855896
0.7034898400306702
0.6897311210632324
0.7196414470672607
0.7453643083572388
0.7561320066452026
0.7746763229370117
0.8057830333709717
0.8057830333709717
0.8889336585998535
0.8943174481391907
0.9254242181777954
0.9978070855140686
0.9960124492645264
1.0013962984085083
1.0606186389923096
1.0803593397140503
1.1222338676452637
1.1497513055801392
1.181456208229065
1.2215360403060913
1.2418750524520874
1.23589289188385
1.2813565731048584
1.3028919696807861
1.3172489404678345
1.3112668991088867
1.3507484197616577
1.392622709274292
1.386042594909668
1.3752747774124146
1.4285151958465576
1.4141581058502197
1.4464613199234009
1.4404792785644531
1.4590237140655518
1.5014961957931519
1.454836130142212
1.4662021398544312
1.4751750230789185
1.454237937927246
1.4901304244995117
1.5224334001541138
1.5601203441619873
1.5206388235092163
1.5439687967300415
1.5463615655899048
1.5930217504501343
1.6079767942428589
1.578664779663086
1.595414400100708
1.521835207939148
1.555932879447937
1.5756736993789673
1.500898003578186
1.509272813796997
1.521835207939148
1.4739787578582764
1.4967106580734253
1.5290136337280273
1.4799607992172241
1.4614163637161255
1.4356937408447266
1.37587308883667
1.415354609489441
1.3525431156158447
1.3022936582565308
1.289731502532959
1.2664015293121338
1.2287143468856812
1.1928220987319946
1.1850453615188599
1.1545369625091553
1.1575279235839844
1.1312068700790405
1.1455638408660889
1.1001002788543701
1.1060823202133179
1.0426725149154663
1.054038405418396
1.0342975854873657
1.0516455173492432
1.0450652837753296
1.0325030088424683
0.9918249845504761
1.0187442302703857
1.0157532691955566
1.0265209674835205
1.0241280794143677
0.9834501147270203
0.9667003750801086
0.9559326767921448
0.9774680733680725
0.9332008957862854
0.9684950113296509
0.9744770526885986
0.9433702826499939
0.9409775137901306
0.9062815308570862
0.8823533058166504
0.9044870138168335
0.93260258436203
0.9158528447151184
0.9439685940742493
0.9128618240356445
0.9308080077171326
0.9463613033294678
0.9445667266845703
0.8638089895248413
0.8901299834251404
0.877567708492279
0.8458628058433533
0.8333004713058472
0.8428717851638794
0.8679963946342468
0.8422735333442688
0.8787640929222107
0.8865407705307007
0.9062815308570862
0.9014959931373596
0.9122636914253235
0.8943174481391907
0.9230313897132874
0.9780662655830383
0.9996016621589661
1.0241280794143677
0.973280668258667
0.9649056792259216
1.0013962984085083
1.0336995124816895
1.0534402132034302
1.0887343883514404
1.0516455173492432
1.0707882642745972
1.067797064781189
1.0217353105545044
1.1222338676452637
1.0851449966430664
1.0666006803512573
1.0761719942092896
1.0929217338562012
1.050449252128601
1.0097712278366089
1.0827523469924927
1.1306087970733643
1.0719846487045288
1.0695916414260864
1.095314621925354
1.1150554418563843
1.074975609779358
1.1228320598602295
1.0791629552841187
1.0941181182861328
1.101894736289978
1.0666006803512573
1.1090734004974365
1.1437692642211914
1.097109079360962
1.098903775215149
1.0911270380020142
1.1150554418563843
1.1389836072921753
1.1509476900100708
1.1341978311538696
1.1910275220870972
1.1461620330810547
1.1084750890731812
1.1198410987854004
1.134796142578125
1.1335997581481934
1.1443674564361572
1.1497513055801392
1.1395817995071411
1.1467602252960205
1.171286702156067
1.1688939332962036
1.2323037385940552
1.2167503833770752
1.2646067142486572
1.2562319040298462
1.2747762203216553
1.262213945388794
1.2664015293121338
1.2406785488128662
1.2795618772506714
1.3238290548324585
1.3094723224639893
1.3262219429016113
1.3345967531204224
1.3351950645446777
1.34476637840271
1.347757339477539
1.346561074256897
1.3609179258346558
1.3806586265563965
1.3435698747634888
1.3621143102645874
1.357926845550537
1.3328022956848145
1.3692927360534668
1.354935884475708
1.3106685876846313
1.349552035331726
1.35613214969635
1.3543376922607422
1.366899847984314
1.3627125024795532
1.3657034635543823
1.3142578601837158
1.3268201351165771
1.3345967531204224
1.3064812421798706
1.3244273662567139
1.2951152324676514
1.316650629043579
1.2717852592468262
1.3513466119766235
1.3094723224639893
1.2903295755386353
1.3435698747634888
1.3058829307556152
1.3345967531204224
1.3196415901184082
1.3094723224639893
1.2969099283218384
1.3016955852508545
1.2269197702407837
1.2699906826019287
1.243071436882019
1.1754741668701172
1.1850453615188599
1.1838489770889282
1.1641082763671875
1.1461620330810547
1.1736794710159302
1.1330015659332275
1.073180913925171
1.083350419998169
1.0648061037063599
1.046859860420227
1.0241280794143677
1.0354939699172974
1.0037890672683716
1.0031908750534058
1.0043872594833374
0.9888339638710022
0.973878800868988
1.0013962984085083
1.0241280794143677
0.9714860320091248
1.0169496536254883
0.9870393872261047
1.021136999130249
0.9774680733680725
1.0163514614105225
1.021136999130249
1.0277173519134521
0.9996016621589661
0.9678966999053955
0.9828518629074097
1.0253244638442993
0.9960124492645264
0.9978070855140686
0.947557806968689
0.957727313041687
0.9302098155021667
0.9637093544006348
0.9744770526885986
0.942173957824707
0.9463613033294678
0.9750752449035645
0.9696913957595825
0.9990034699440002
0.9427721500396729
0.9846464991569519
0.9553344249725342
0.9649056792259216
0.9517452120780945
0.9840483665466309
0.9349954724311829
0.9152547121047974
0.9260224103927612
0.9272187948226929
0.965503990650177
0.9876375198364258
0.965503990650177
0.9960124492645264
1.0169496536254883
0.9930214285850525
1.0336995124816895
0.9960124492645264
0.9589236974716187
1.0169496536254883
1.0265209674835205
1.0402796268463135
1.0743772983551025
1.0965110063552856
1.0588239431381226
1.0917253494262695
1.1084750890731812
1.0534402132034302
1.0809576511383057
1.0851449966430664
1.1048858165740967
1.0528419017791748
1.0707882642745972
1.0456634759902954
1.059422254562378
0.9990034699440002
1.0761719942092896
1.050449252128601
1.0462616682052612
1.0582258701324463
1.0444672107696533
1.0378868579864502
1.0199406147003174
1.0235298871994019
1.0360921621322632
1.0133603811264038
1.059422254562378
1.061216950416565
1.038485050201416
1.0737792253494263
1.1216356754302979
1.1156535148620605
1.0911270380020142
1.081555962562561
1.1479566097259521
1.1533405780792236
1.1306087970733643
1.1581262350082397
1.131805181503296
1.0941181182861328
1.1150554418563843
1.119242787361145
1.1419745683670044
1.0785647630691528
1.0959126949310303
1.1222338676452637
1.1258231401443481
1.0857433080673218
1.1066803932189941
1.112662434577942
1.1563315391540527
1.0755736827850342
1.101894736289978
1.1048858165740967
1.0899306535720825
1.1060823202133179
1.0606186389923096
1.0821540355682373
1.1001002788543701
1.0606186389923096
1.0534402132034302
1.0983057022094727
1.0450652837753296
1.0319048166275024
1.067797064781189
1.0636096000671387
1.0390832424163818
1.0307084321975708
1.028315544128418
1.031306505203247
1.0247262716293335
1.0205389261245728
1.0456634759902954
1.028315544128418
1.0354939699172974
1.0719846487045288
1.0791629552841187
1.048654556274414
1.038485050201416
1.0498509407043457
1.0402796268463135
1.0791629552841187
1.048654556274414
1.046859860420227
1.031306505203247
1.0857433080673218
1.0857433080673218
1.0648061037063599
1.0743772983551025
1.0809576511383057
1.0941181182861328
1.1132607460021973
1.1306087970733643
1.1533405780792236
1.150349497795105
1.1413764953613281
1.1820544004440308
1.114457130432129
1.1395817995071411
1.1431710720062256
1.1455638408660889
1.1156535148620605
1.1455638408660889
1.1300104856491089
1.155135154724121
1.0983057022094727
1.155135154724121
1.155135154724121
1.1593226194381714
1.1533405780792236
1.1497513055801392
1.1665010452270508
1.1976077556610107
1.1868400573730469
1.2137593030929565
1.2029916048049927
1.1629117727279663
1.1485549211502075
1.2089736461639404
1.1868400573730469
1.179063320159912
1.1868400573730469
1.1826525926589966
1.1868400573730469
1.2083754539489746
1.183250904083252
1.205384373664856
1.2185449600219727
1.2311073541641235
1.2119646072387695
1.1736794710159302
1.210170030593872
1.170688509941101
1.1670992374420166
1.2029916048049927
1.239482045173645
1.176072359085083
1.2131611108779907
1.23589289188385
1.2113664150238037
1.2215360403060913
1.2735798358917236
1.243071436882019
1.3070793151855469
1.3196415901184082
1.3178470134735107
1.3304094076156616
1.368694543838501
1.3639088869094849
1.4147562980651855
1.454237937927246
1.4919248819351196
1.4386845827102661
1.447657585144043
1.4943177700042725
1.4488540887832642
1.456032633781433
1.476969838142395
1.485344648361206
1.4231313467025757
1.4356937408447266
1.5152548551559448
1.4434703588485718
1.4739787578582764
1.482353687286377
1.5032907724380493
1.4895321130752563
1.4584254026412964
1.4865411520004272
1.4404792785644531
1.43389892578125
1.482353687286377
1.4368900060653687
1.4285151958465576
1.4237295389175415
1.4207384586334229
1.3663017749786377
1.3399807214736938
1.34476637840271
1.3537393808364868
1.2885348796844482
1.3262219429016113
1.299901008605957
1.241276741027832
1.2293126583099365
1.2047863006591797
1.2418750524520874
1.2077772617340088
1.1892328262329102
1.1808580160140991
1.1491531133651733
1.1527422666549683
1.1389836072921753
1.1330015659332275
1.131805181503296
1.0432707071304321
1.0450652837753296
1.0115658044815063
0.9996016621589661
1.0049855709075928
0.965503990650177
0.949950635433197
0.9194421172142029
0.9284152388572693
0.9182457327842712
0.9080761671066284
0.9122636914253235
0.9278169274330139
0.924227774143219
0.869192898273468
0.8560323119163513
0.8781659603118896
0.8931210041046143
0.9014959931373596
0.9014959931373596
0.9140582084655762
0.9433702826499939
0.9517452120780945
0.957727313041687
0.9936195611953735
0.9846464991569519
0.9900304079055786
1.0295119285583496
1.0001999139785767
0.9834501147270203
0.9619146585464478
0.9948160648345947
1.0097712278366089
0.9720841646194458
0.9619146585464478
0.9613165259361267
0.9942178130149841
0.9894322156906128
0.9930214285850525
0.9774680733680725
0.9846464991569519
0.9834501147270203
0.9684950113296509
0.9254242181777954
0.9296115636825562
0.9954141974449158
0.9786644577980042
0.9529416561126709
0.9547362923622131
0.9445667266845703
0.9254242181777954
0.9858429431915283
0.9409775137901306
0.9529416561126709
0.9116654396057129
0.9230313897132874
0.9062815308570862
0.9206385016441345
0.9493523836135864
0.9391829371452332
0.8644072413444519
0.9200403094291687
0.8638089895248413
0.8727820515632629
0.9026923775672913
0.8901299834251404
0.9074780344963074
0.9182457327842712
0.932004451751709
0.9451649785041809
0.9355936050415039
0.9487541913986206
0.9302098155021667
0.939781129360199
0.9565308690071106
0.9720841646194458
1.0109676122665405
1.0259227752685547
1.0456634759902954
1.0414761304855347
1.0390832424163818
1.0564311742782593
1.0402796268463135
1.079761266708374
1.038485050201416
1.086341381072998
1.1102697849273682
1.0935200452804565
1.1682956218719482
1.1377872228622437
1.171286702156067
1.2269197702407837
1.1826525926589966
1.196411371231079
1.2340983152389526
1.2167503833770752
1.2580264806747437
1.191625714302063
1.310070276260376
1.2293126583099365
1.2969099283218384
1.2526427507400513
1.2335000038146973
1.2340983152389526
1.2370893955230713
1.2616157531738281
1.2562319040298462
1.2867403030395508
1.3274184465408325
1.265204906463623
1.2203396558761597
1.2167503833770752
1.2448660135269165
1.2203396558761597
1.1838489770889282
1.2472589015960693
1.2000006437301636
1.2185449600219727
1.1928220987319946
1.1389836072921753
1.184447169303894
1.1934202909469604
1.1413764953613281
1.121037483215332
1.1078767776489258
1.155135154724121
1.1736794710159302
1.165902853012085
1.1407781839370728
1.1060823202133179
1.1359925270080566
1.1419745683670044
1.1599208116531372
1.183250904083252
1.1449655294418335
1.1395817995071411
1.1377872228622437
1.1228320598602295
1.1401798725128174
1.1216356754302979
1.1497513055801392
1.1437692642211914
1.1581262350082397
1.131805181503296
1.1090734004974365
1.1216356754302979
1.1724830865859985
1.1491531133651733
1.1730812788009644
1.1509476900100708
1.2251251935958862
1.23589289188385
1.264008641242981
1.2675977945327759
1.246660590171814
1.2388838529586792
1.2681959867477417
1.2729816436767578
1.331007719039917
1.3214364051818848
1.3112668991088867
1.3172489404678345
1.3573286533355713
1.3202399015426636
1.349552035331726
1.3692927360534668
1.408176064491272
1.394417405128479
1.3740785121917725
1.3896318674087524
1.3651052713394165
1.4099708795547485
1.4195420742034912
1.5002998113632202
1.4913266897201538
1.4931213855743408
1.5457634925842285
1.5613168478012085
1.554736614227295
1.5738790035247803
1.5726827383041382
1.5846468210220337
1.5511473417282104
1.5678969621658325
1.6079767942428589
1.5696916580200195
1.5834503173828125
1.5858430862426758
1.532004714012146
1.5589239597320557
1.5296119451522827
1.5086747407913208
1.5056836605072021
1.5535401105880737
1.500898003578186
1.4877374172210693
1.4584254026412964
1.4201401472091675
1.4213366508483887
1.4285151958465576
1.4404792785644531
1.4177473783493042
1.4225330352783203
1.4261223077774048
1.4267204999923706
1.4297116994857788
1.4039887189865112
1.394417405128479
1.3423734903335571
1.347757339477539
1.333998680114746
1.3417752981185913
1.3142578601837158
1.256830096244812
1.2921241521835327
1.2287143468856812
1.2711870670318604
1.2711870670318604
1.2460623979568481
1.2113664150238037
1.2305090427398682
1.1988041400909424
1.184447169303894
1.1688939332962036
1.201795220375061
1.1300104856491089
1.179063320159912
1.1545369625091553
1.1060823202133179
1.1102697849273682
1.1001002788543701
1.1270195245742798
1.116251826286316
1.1252248287200928
1.1060823202133179
1.1395817995071411
1.1042877435684204
1.0666006803512573
1.0528419017791748
1.1096714735031128
1.1270195245742798
1.0707882642745972
1.079761266708374
1.0336995124816895
1.0295119285583496
1.0701899528503418
1.0444672107696533
1.0456634759902954
1.0007981061935425
1.0007981061935425
1.017547845840454
0.9643075466156006
0.9984052181243896
0.9744770526885986
1.0151549577713013
0.9589236974716187
0.9936195611953735
0.997208833694458
1.0079765319824219
0.9870393872261047
0.966102123260498
0.9607183337211609
0.9768698215484619
0.9930214285850525
0.9672985672950745
0.94037926197052
0.9792627096176147
0.9595218896865845
0.9870393872261047
0.9505488276481628
0.9182457327842712
0.9355936050415039
0.9272187948226929
0.8937193155288696
0.9493523836135864
0.9236295223236084
0.9182457327842712
0.92482590675354
0.9517452120780945
0.9337990283966064
0.9553344249725342
0.93260258436203
0.9517452120780945
0.9954141974449158
1.0498509407043457
0.9942178130149841
1.043868899345398
1.1198410987854004
1.0372885465621948
1.0839486122131348
1.1359925270080566
1.1383854150772095
1.1216356754302979
1.1300104856491089
1.1443674564361572
1.098903775215149
1.1629117727279663
1.2179466485977173
1.1641082763671875
1.179661512374878
1.1647064685821533
1.1012966632843018
1.1168500185012817
1.1611171960830688
1.119242787361145
1.1341978311538696
1.1341978311538696
1.1234301328659058
1.179661512374878
1.131805181503296
1.1395817995071411
1.1282157897949219
1.1910275220870972
1.1940186023712158
1.1988041400909424
1.2119646072387695
1.1736794710159302
1.1808580160140991
1.2029916048049927
1.2305090427398682
1.2346965074539185
1.2496516704559326
1.2370893955230713
1.2424731254577637
1.2496516704559326
1.2550355195999146
1.2562319040298462
1.239482045173645
1.2915260791778564
1.3094723224639893
1.3142578601837158
1.2957135438919067
1.3920246362686157
1.373480200767517
1.363310694694519
1.4195420742034912
1.4362916946411133
1.4189438819885254
1.4452649354934692
1.471585988998413
1.4865411520004272
1.4572291374206543
1.4895321130752563
1.4464613199234009
1.4291133880615234
1.4057832956314087
1.37168550491333
1.3956139087677002
1.3770694732666016
1.3657034635543823
1.3800605535507202
1.373480200767517
1.3489538431167603
1.3262219429016113
1.37587308883667
1.3776675462722778
1.3770694732666016
1.4219348430633545
1.4536397457122803
1.425524115562439
1.4225330352783203
1.3663017749786377
1.3938192129135132
1.3728820085525513
1.3280166387557983
1.3172489404678345
1.3375877141952515
1.2837493419647217
1.2502497434616089
1.272383451461792
1.2119646072387695
1.205384373664856
1.2083754539489746
1.1670992374420166
1.1856436729431152
1.1748759746551514
1.1449655294418335
1.160519003868103
1.1647064685821533
1.1563315391540527
1.1676974296569824
1.1850453615188599
1.1838489770889282
1.1724830865859985
1.1539387702941895
1.1617153882980347
1.176072359085083
1.1413764953613281
1.1599208116531372
1.174277663230896
1.2143574953079224
1.1623135805130005
1.1772687435150146
1.1910275220870972
1.1593226194381714
1.1234301328659058
1.0965110063552856
1.1150554418563843
1.0893324613571167
1.081555962562561
1.1084750890731812
1.0600205659866333
1.098903775215149
1.083350419998169
1.0564311742782593
0.9960124492645264
0.9900304079055786
