Sample,A0,A1
0,593.0,593.0
1,596.0,599.0
2,597.0,604.0
3,597.0,609.0
4,595.0,613.0
5,591.0,609.0
6,586.0,599.0
7,578.0,598.0
8,582.0,603.0
9,586.0,608.0
10,590.0,609.0
11,593.0,609.0
12,593.0,607.0
13,592.0,604.0
14,589.0,599.0
15,587.0,590.0
16,590.0,588.0
17,593.0,594.0
18,596.0,599.0
19,596.0,604.0
20,595.0,610.0
21,592.0,611.0
22,589.0,606.0
23,582.0,597.0
24,580.0,600.0
25,583.0,605.0
26,586.0,608.0
27,590.0,609.0
28,592.0,608.0
29,593.0,606.0
30,591.0,603.0
31,586.0,598.0
32,587.0,588.0
33,590.0,591.0
34,594.0,597.0
35,597.0,602.0
36,597.0,607.0
37,595.0,610.0
38,592.0,610.0
39,588.0,601.0
40,579.0,595.0
41,580.0,600.0
42,585.0,605.0
43,588.0,608.0
44,592.0,608.0
45,593.0,607.0
46,592.0,604.0
47,590.0,600.0
48,585.0,593.0
49,588.0,586.0
50,593.0,593.0
51,596.0,597.0
52,596.0,603.0
53,596.0,608.0
54,594.0,611.0
55,591.0,607.0
56,585.0,597.0
57,578.0,597.0
58,582.0,603.0
59,586.0,607.0
60,589.0,608.0
61,591.0,608.0
62,592.0,606.0
63,591.0,603.0
64,589.0,599.0
65,586.0,589.0
66,589.0,588.0
67,593.0,594.0
68,596.0,600.0
69,597.0,605.0
70,595.0,610.0
71,593.0,611.0
72,589.0,605.0
73,581.0,596.0
74,579.0,599.0
75,583.0,605.0
76,587.0,608.0
77,590.0,609.0
78,592.0,608.0
79,593.0,607.0
80,591.0,603.0
81,586.0,597.0
82,588.0,588.0
83,591.0,591.0
84,594.0,597.0
85,596.0,602.0
86,597.0,607.0
87,595.0,612.0
88,592.0,610.0
89,588.0,600.0
90,579.0,597.0
91,581.0,602.0
92,585.0,607.0
93,589.0,609.0
94,591.0,608.0
95,593.0,607.0
96,592.0,605.0
97,590.0,600.0
98,586.0,594.0
99,589.0,588.0
100,592.0,593.0
101,595.0,598.0
102,596.0,604.0
103,595.0,608.0
104,593.0,612.0
105,590.0,607.0
106,585.0,598.0
107,578.0,598.0
108,581.0,603.0
109,585.0,608.0
110,589.0,610.0
111,591.0,610.0
112,592.0,607.0
113,591.0,604.0
114,589.0,600.0
115,586.0,590.0
116,589.0,590.0
117,593.0,596.0
118,596.0,601.0
119,596.0,606.0
120,596.0,610.0
121,593.0,613.0
122,589.0,605.0
123,581.0,596.0
124,579.0,600.0
125,584.0,605.0
126,587.0,608.0
127,590.0,608.0
128,593.0,609.0
129,592.0,606.0
130,591.0,602.0
131,585.0,597.0
132,588.0,589.0
133,591.0,591.0
134,595.0,597.0
135,596.0,602.0
136,596.0,608.0
137,594.0,612.0
138,591.0,610.0
139,587.0,600.0
140,577.0,596.0
141,580.0,601.0
142,584.0,606.0
143,587.0,609.0
144,591.0,609.0
145,592.0,607.0
146,592.0,604.0
147,589.0,600.0
148,585.0,592.0
149,588.0,588.0
150,592.0,594.0
151,595.0,599.0
152,596.0,603.0
153,596.0,608.0
154,593.0,611.0
155,590.0,607.0
156,584.0,597.0
157,577.0,598.0
158,581.0,604.0
159,585.0,608.0
160,588.0,609.0
161,591.0,609.0
162,592.0,607.0
163,591.0,604.0
164,587.0,599.0
165,586.0,589.0
166,589.0,590.0
167,593.0,595.0
168,595.0,600.0
169,596.0,606.0
170,595.0,610.0
171,592.0,611.0
172,588.0,603.0
173,579.0,596.0
174,579.0,600.0
175,583.0,605.0
176,586.0,609.0
177,591.0,609.0
178,592.0,608.0
179,592.0,605.0
180,590.0,601.0
181,584.0,595.0
182,587.0,587.0
183,591.0,591.0
184,594.0,597.0
185,595.0,602.0
186,595.0,607.0
187,594.0,611.0
188,590.0,609.0
189,586.0,599.0
190,577.0,596.0
191,580.0,602.0
192,584.0,606.0
193,588.0,609.0
194,591.0,609.0
195,592.0,608.0
196,591.0,605.0
197,589.0,600.0
198,585.0,592.0
199,588.0,587.0
200,591.0,593.0
201,595.0,599.0
202,596.0,604.0
203,595.0,609.0
204,593.0,612.0
205,589.0,606.0
206,583.0,597.0
207,578.0,599.0
208,581.0,604.0
209,585.0,607.0
210,589.0,609.0
211,591.0,609.0
212,592.0,606.0
213,590.0,602.0
214,587.0,599.0
215,586.0,588.0
216,589.0,590.0
217,592.0,595.0
218,595.0,601.0
219,595.0,606.0
220,594.0,610.0
221,591.0,611.0
222,588.0,602.0
223,579.0,596.0
224,579.0,600.0
225,583.0,605.0
226,586.0,608.0
227,590.0,609.0
228,592.0,608.0
229,592.0,605.0
230,590.0,601.0
231,584.0,596.0
232,587.0,587.0
233,591.0,591.0
234,594.0,597.0
235,596.0,602.0
236,596.0,607.0
237,594.0,611.0
238,590.0,608.0
239,587.0,599.0
240,578.0,597.0
241,581.0,602.0
242,584.0,606.0
243,588.0,608.0
244,591.0,608.0
245,592.0,607.0
246,591.0,603.0
247,589.0,599.0
248,584.0,591.0
249,588.0,588.0
250,591.0,593.0
251,595.0,599.0
252,596.0,605.0
253,595.0,610.0
254,592.0,612.0
255,589.0,606.0
256,582.0,597.0
257,577.0,599.0
258,581.0,604.0
259,585.0,607.0
260,589.0,609.0
261,591.0,609.0
262,591.0,606.0
263,591.0,603.0
264,586.0,598.0
265,586.0,588.0
266,589.0,590.0
267,593.0,597.0
268,596.0,602.0
269,596.0,606.0
270,595.0,610.0
271,592.0,611.0
272,588.0,603.0
273,579.0,596.0
274,579.0,600.0
275,583.0,605.0
276,587.0,608.0
277,590.0,609.0
278,592.0,608.0
279,592.0,605.0
280,590.0,601.0
281,584.0,595.0
282,587.0,588.0
283,591.0,592.0
284,594.0,597.0
285,596.0,604.0
286,596.0,608.0
287,594.0,612.0
288,590.0,609.0
289,585.0,598.0
290,577.0,597.0
291,581.0,602.0
292,585.0,607.0
293,589.0,609.0
294,591.0,609.0
295,591.0,607.0
296,591.0,604.0
297,589.0,600.0
298,585.0,591.0
299,588.0,588.0
300,592.0,594.0
301,596.0,600.0
302,597.0,604.0
303,594.0,609.0
304,593.0,611.0
305,589.0,606.0
306,582.0,597.0
307,578.0,598.0
308,582.0,604.0
309,585.0,607.0
310,590.0,609.0
311,591.0,608.0
312,592.0,607.0
313,590.0,603.0
314,586.0,599.0
315,586.0,588.0
316,590.0,591.0
317,593.0,596.0
318,596.0,602.0
319,596.0,608.0
320,595.0,611.0
321,592.0,611.0
322,588.0,601.0
323,579.0,596.0
324,581.0,602.0
325,584.0,606.0
326,587.0,608.0
327,591.0,609.0
328,592.0,608.0
329,592.0,605.0
330,590.0,601.0
331,584.0,595.0
332,588.0,588.0
333,591.0,592.0
334,594.0,598.0
335,595.0,604.0
336,595.0,608.0
337,593.0,612.0
338,590.0,608.0
339,585.0,598.0
340,577.0,597.0
341,581.0,603.0
342,584.0,607.0
343,588.0,609.0
344,592.0,610.0
345,592.0,607.0
346,591.0,604.0
347,588.0,600.0
348,585.0,590.0
349,589.0,589.0
350,592.0,595.0
351,595.0,600.0
352,595.0,605.0
353,595.0,611.0
354,592.0,612.0
355,589.0,605.0
356,581.0,597.0
357,579.0,600.0
358,582.0,605.0
359,586.0,608.0
360,590.0,608.0
361,591.0,608.0
362,592.0,606.0
363,590.0,603.0
364,586.0,597.0
365,586.0,588.0
366,590.0,591.0
367,594.0,596.0
368,595.0,602.0
369,596.0,607.0
370,594.0,612.0
371,591.0,611.0
372,587.0,602.0
373,578.0,597.0
374,580.0,602.0
375,583.0,607.0
376,587.0,609.0
377,591.0,610.0
378,592.0,609.0
379,592.0,606.0
380,590.0,602.0
381,584.0,595.0
382,588.0,589.0
383,592.0,593.0
384,595.0,598.0
385,596.0,604.0
386,595.0,610.0
387,593.0,613.0
388,590.0,608.0
389,585.0,598.0
390,578.0,598.0
391,582.0,605.0
392,585.0,608.0
393,589.0,609.0
394,591.0,609.0
395,592.0,607.0
396,592.0,604.0
397,588.0,599.0
398,585.0,590.0
399,589.0,590.0
400,592.0,595.0
401,596.0,601.0
402,596.0,606.0
403,594.0,610.0
404,592.0,612.0
405,588.0,605.0
406,580.0,597.0
407,578.0,600.0
408,583.0,605.0
409,586.0,608.0
410,589.0,609.0
411,592.0,608.0
412,592.0,607.0
413,591.0,604.0
414,584.0,597.0
415,586.0,588.0
416,590.0,592.0
417,593.0,597.0
418,596.0,603.0
419,595.0,607.0
420,594.0,612.0
421,591.0,611.0
422,586.0,601.0
423,578.0,597.0
424,580.0,603.0
425,584.0,607.0
426,587.0,609.0
427,590.0,610.0
428,591.0,608.0
429,591.0,606.0
430,588.0,601.0
431,583.0,594.0
432,588.0,589.0
433,591.0,594.0
434,594.0,600.0
435,596.0,605.0
436,595.0,610.0
437,593.0,613.0
438,589.0,608.0
439,584.0,599.0
440,578.0,600.0
441,581.0,605.0
442,585.0,608.0
443,589.0,611.0
444,591.0,610.0
445,592.0,609.0
446,591.0,604.0
447,588.0,600.0
448,585.0,591.0
449,589.0,590.0
450,592.0,596.0
451,595.0,601.0
452,597.0,606.0
453,595.0,611.0
454,592.0,612.0
455,588.0,605.0
456,580.0,596.0
457,579.0,601.0
458,582.0,606.0
459,586.0,609.0
460,589.0,610.0
461,591.0,609.0
462,592.0,606.0
463,590.0,603.0
464,585.0,597.0
465,587.0,588.0
466,590.0,592.0
467,594.0,597.0
468,596.0,602.0
469,596.0,608.0
470,594.0,612.0
471,591.0,611.0
472,586.0,600.0
473,578.0,598.0
474,581.0,602.0
475,584.0,607.0
476,587.0,608.0
477,591.0,610.0
478,591.0,607.0
479,591.0,605.0
480,589.0,600.0
481,584.0,593.0
482,587.0,588.0
483,591.0,593.0
484,594.0,599.0
485,596.0,604.0
486,595.0,609.0
487,593.0,612.0
488,589.0,608.0
489,583.0,598.0
490,578.0,599.0
491,581.0,604.0
492,585.0,608.0
493,588.0,609.0
494,591.0,610.0
495,593.0,607.0
496,591.0,604.0
497,588.0,599.0
498,586.0,589.0
499,590.0,590.0
500,593.0,596.0
501,596.0,601.0
502,597.0,606.0
503,595.0,610.0
504,592.0,611.0
505,588.0,603.0
506,580.0,596.0
507,579.0,600.0
508,583.0,606.0
509,587.0,609.0
510,591.0,609.0
511,592.0,609.0
512,592.0,605.0
513,590.0,601.0
514,584.0,596.0
515,587.0,587.0
516,590.0,591.0
517,594.0,597.0
518,596.0,602.0
519,596.0,608.0
520,594.0,611.0
521,590.0,609.0
522,586.0,599.0
523,578.0,597.0
524,580.0,602.0
525,584.0,607.0
526,588.0,609.0
527,591.0,609.0
528,592.0,608.0
529,591.0,605.0
530,589.0,600.0
531,585.0,592.0
532,589.0,588.0
533,592.0,594.0
534,595.0,599.0
535,596.0,604.0
536,595.0,609.0
537,593.0,612.0
538,589.0,607.0
539,583.0,597.0
540,578.0,599.0
541,582.0,604.0
542,586.0,609.0
543,589.0,610.0
544,592.0,608.0
545,591.0,607.0
546,591.0,604.0
547,588.0,599.0
548,587.0,590.0
549,589.0,590.0
550,593.0,596.0
551,596.0,602.0
552,596.0,607.0
553,595.0,610.0
554,592.0,612.0
555,588.0,603.0
556,579.0,597.0
557,580.0,600.0
558,583.0,605.0
559,587.0,608.0
560,591.0,609.0
561,593.0,608.0
562,592.0,606.0
563,591.0,601.0
564,585.0,595.0
565,587.0,587.0
566,592.0,592.0
567,594.0,597.0
568,596.0,602.0
569,596.0,608.0
570,594.0,611.0
571,591.0,609.0
572,587.0,598.0
573,578.0,597.0
574,580.0,602.0
575,585.0,606.0
576,588.0,609.0
577,591.0,609.0
578,592.0,607.0
579,592.0,604.0
580,589.0,600.0
581,585.0,591.0
582,588.0,588.0
583,592.0,594.0
584,595.0,599.0
585,596.0,604.0
586,596.0,609.0
587,593.0,612.0
588,590.0,606.0
589,583.0,596.0
590,578.0,599.0
591,582.0,604.0
592,586.0,608.0
593,589.0,609.0
594,592.0,608.0
595,592.0,607.0
596,591.0,604.0
597,587.0,599.0
598,587.0,589.0
599,590.0,591.0
600,594.0,596.0
601,596.0,601.0
602,596.0,607.0
603,595.0,611.0
604,592.0,611.0
605,589.0,603.0
606,579.0,596.0
607,580.0,601.0
608,584.0,606.0
609,587.0,609.0
610,591.0,609.0
611,593.0,608.0
612,593.0,605.0
613,590.0,601.0
614,584.0,595.0
615,587.0,587.0
616,592.0,592.0
617,595.0,597.0
618,596.0,602.0
619,595.0,607.0
620,594.0,611.0
621,590.0,609.0
622,585.0,598.0
623,577.0,597.0
624,580.0,602.0
625,584.0,606.0
626,588.0,609.0
627,591.0,609.0
628,592.0,607.0
629,592.0,604.0
630,589.0,600.0
631,585.0,591.0
632,589.0,589.0
633,592.0,594.0
634,595.0,599.0
635,595.0,605.0
636,595.0,610.0
637,594.0,612.0
638,589.0,606.0
639,581.0,596.0
640,579.0,599.0
641,583.0,605.0
642,586.0,608.0
643,590.0,609.0
644,592.0,608.0
645,592.0,607.0
646,591.0,602.0
647,586.0,598.0
648,586.0,588.0
649,590.0,590.0
650,594.0,596.0
651,596.0,602.0
652,596.0,607.0
653,594.0,611.0
654,591.0,611.0
655,587.0,602.0
656,579.0,596.0
657,580.0,601.0
658,584.0,606.0
659,587.0,608.0
660,590.0,609.0
661,593.0,608.0
662,592.0,605.0
663,591.0,602.0
664,584.0,594.0
665,587.0,587.0
666,591.0,592.0
667,594.0,598.0
668,596.0,603.0
669,596.0,608.0
670,593.0,612.0
671,590.0,608.0
672,585.0,597.0
673,577.0,597.0
674,581.0,603.0
675,584.0,606.0
676,588.0,608.0
677,591.0,609.0
678,593.0,607.0
679,591.0,604.0
680,589.0,600.0
681,585.0,591.0
682,589.0,589.0
683,593.0,595.0
684,596.0,600.0
685,597.0,605.0
686,595.0,610.0
687,592.0,612.0
688,589.0,605.0
689,581.0,597.0
690,578.0,600.0
691,583.0,605.0
692,587.0,608.0
693,590.0,609.0
694,593.0,609.0
695,592.0,606.0
696,591.0,602.0
697,586.0,597.0
698,587.0,587.0
699,591.0,591.0
700,595.0,596.0
701,596.0,601.0
702,596.0,606.0
703,594.0,610.0
704,591.0,610.0
705,587.0,600.0
706,578.0,595.0
707,581.0,601.0
708,584.0,605.0
709,587.0,607.0
710,590.0,608.0
711,592.0,607.0
712,592.0,604.0
713,590.0,600.0
714,584.0,593.0
715,588.0,587.0
716,591.0,592.0
717,595.0,598.0
718,596.0,603.0
719,596.0,608.0
720,593.0,611.0
721,590.0,607.0
722,585.0,597.0
723,577.0,597.0
724,581.0,602.0
725,585.0,606.0
726,588.0,608.0
727,591.0,608.0
728,593.0,607.0
729,592.0,604.0
730,589.0,599.0
731,585.0,590.0
732,590.0,589.0
733,592.0,595.0
734,595.0,599.0
735,597.0,605.0
736,595.0,609.0
737,592.0,610.0
738,588.0,604.0
739,581.0,596.0
740,579.0,599.0
741,582.0,604.0
742,586.0,607.0
743,590.0,609.0
744,592.0,608.0
745,592.0,606.0
746,591.0,602.0
747,585.0,597.0
748,587.0,587.0
749,591.0,590.0
750,594.0,596.0
751,596.0,601.0
752,597.0,607.0
753,595.0,610.0
754,592.0,610.0
755,588.0,600.0
756,579.0,596.0
757,581.0,602.0
758,584.0,606.0
759,589.0,608.0
760,591.0,608.0
761,592.0,607.0
762,591.0,604.0
763,590.0,600.0
764,584.0,593.0
765,588.0,587.0
766,591.0,592.0
767,595.0,599.0
768,596.0,603.0
769,595.0,608.0
770,593.0,611.0
771,590.0,608.0
772,585.0,598.0
773,578.0,599.0
774,581.0,603.0
775,585.0,608.0
776,589.0,609.0
777,591.0,609.0
778,592.0,607.0
779,592.0,604.0
780,589.0,599.0
781,586.0,590.0
782,589.0,590.0
783,593.0,595.0
784,596.0,600.0
785,597.0,606.0
786,595.0,610.0
787,593.0,612.0
788,589.0,604.0
789,580.0,597.0
790,579.0,599.0
791,583.0,604.0
792,587.0,608.0
793,590.0,609.0
794,592.0,609.0
795,593.0,606.0
796,590.0,602.0
797,585.0,597.0
798,587.0,588.0
799,591.0,592.0
800,594.0,597.0
801,596.0,603.0
802,596.0,608.0
803,594.0,611.0
804,592.0,611.0
805,587.0,600.0
806,578.0,596.0
807,580.0,602.0
808,585.0,606.0
809,588.0,609.0
810,590.0,609.0
811,592.0,608.0
812,591.0,605.0
813,589.0,601.0
814,584.0,593.0
815,589.0,589.0
816,592.0,593.0
817,595.0,598.0
818,596.0,605.0
819,596.0,609.0
820,593.0,612.0
821,589.0,607.0
822,583.0,597.0
823,577.0,598.0
824,581.0,604.0
825,586.0,608.0
826,589.0,609.0
827,591.0,609.0
828,592.0,607.0
829,591.0,604.0
830,588.0,599.0
831,586.0,590.0
832,590.0,590.0
833,594.0,596.0
834,596.0,601.0
835,596.0,606.0
836,596.0,611.0
837,593.0,612.0
838,589.0,604.0
839,580.0,597.0
840,579.0,601.0
841,583.0,606.0
842,587.0,608.0
843,590.0,609.0
844,592.0,608.0
845,592.0,606.0
846,590.0,602.0
847,584.0,596.0
848,587.0,588.0
849,591.0,591.0
850,594.0,597.0
851,596.0,602.0
852,596.0,608.0
853,594.0,611.0
854,591.0,610.0
855,586.0,600.0
856,578.0,597.0
857,581.0,603.0
858,585.0,607.0
859,588.0,609.0
860,591.0,609.0
861,593.0,608.0
862,592.0,605.0
863,590.0,602.0
864,585.0,593.0
865,589.0,588.0
866,592.0,594.0
867,595.0,600.0
868,596.0,604.0
869,595.0,609.0
870,593.0,612.0
871,589.0,607.0
872,583.0,596.0
873,578.0,598.0
874,581.0,604.0
875,586.0,607.0
876,589.0,609.0
877,591.0,609.0
878,592.0,607.0
879,591.0,604.0
880,588.0,599.0
881,586.0,589.0
882,590.0,591.0
883,593.0,596.0
884,595.0,601.0
885,596.0,607.0
886,595.0,612.0
887,592.0,612.0
888,588.0,604.0
889,580.0,597.0
890,579.0,601.0
891,583.0,607.0
892,587.0,608.0
893,591.0,611.0
894,593.0,609.0
895,592.0,606.0
896,591.0,603.0
897,584.0,596.0
898,588.0,588.0
899,592.0,593.0
900,594.0,598.0
901,596.0,603.0
902,596.0,609.0
903,595.0,612.0
904,591.0,611.0
905,587.0,599.0
906,578.0,597.0
907,581.0,602.0
908,584.0,608.0
909,588.0,609.0
910,591.0,609.0
911,592.0,608.0
912,592.0,605.0
913,589.0,601.0
914,585.0,592.0
915,589.0,589.0
916,592.0,594.0
917,595.0,599.0
918,596.0,605.0
919,596.0,610.0
920,593.0,613.0
921,590.0,606.0
922,583.0,597.0
923,578.0,599.0
924,581.0,605.0
925,585.0,608.0
926,590.0,609.0
927,591.0,609.0
928,592.0,607.0
929,590.0,604.0
930,586.0,598.0
931,586.0,588.0
932,589.0,590.0
933,592.0,595.0
934,595.0,601.0
935,596.0,607.0
936,595.0,611.0
937,591.0,611.0
938,588.0,603.0
939,579.0,597.0
940,579.0,601.0
941,583.0,607.0
942,587.0,609.0
943,590.0,610.0
944,592.0,609.0
945,591.0,606.0
946,590.0,602.0
947,584.0,596.0
948,588.0,588.0
949,591.0,593.0
950,595.0,598.0
951,597.0,603.0
952,596.0,609.0
953,594.0,612.0
954,591.0,610.0
955,586.0,599.0
956,578.0,597.0
957,581.0,602.0
958,584.0,606.0
959,588.0,608.0
960,591.0,609.0
961,592.0,607.0
962,591.0,604.0
963,589.0,600.0
964,585.0,591.0
965,588.0,588.0
966,592.0,594.0
967,595.0,599.0
968,596.0,604.0
969,595.0,609.0
970,592.0,611.0
971,589.0,606.0
972,582.0,596.0
973,578.0,599.0
974,581.0,604.0
975,586.0,608.0
976,589.0,609.0
977,592.0,608.0
978,591.0,607.0
979,591.0,603.0
980,586.0,598.0
981,586.0,588.0
982,589.0,590.0
983,593.0,596.0
984,595.0,602.0
985,596.0,607.0
986,594.0,610.0
987,591.0,611.0
988,588.0,602.0
989,579.0,596.0
990,579.0,601.0
991,583.0,606.0
992,587.0,609.0
993,590.0,609.0
994,592.0,608.0
995,591.0,606.0
996,590.0,602.0
997,584.0,595.0
998,588.0,588.0
999,591.0,592.0
1000,595.0,598.0
1001,596.0,603.0
1002,596.0,609.0
1003,594.0,612.0
1004,590.0,609.0
1005,586.0,598.0
1006,577.0,597.0
1007,581.0,603.0
1008,585.0,607.0
1009,588.0,609.0
1010,591.0,610.0
1011,592.0,607.0
1012,591.0,604.0
1013,589.0,600.0
1014,586.0,591.0
1015,589.0,589.0
1016,592.0,594.0
1017,595.0,600.0
1018,596.0,605.0
1019,595.0,610.0
1020,593.0,612.0
1021,589.0,606.0
1022,581.0,597.0
1023,577.0,600.0
1024,582.0,605.0
1025,586.0,608.0
1026,590.0,610.0
1027,592.0,608.0
1028,592.0,607.0
1029,590.0,603.0
1030,585.0,597.0
1031,586.0,588.0
1032,590.0,591.0
1033,593.0,597.0
1034,596.0,602.0
1035,596.0,607.0
1036,594.0,611.0
1037,591.0,611.0
1038,587.0,602.0
1039,578.0,596.0
1040,579.0,601.0
1041,583.0,606.0
1042,587.0,609.0
1043,591.0,610.0
1044,592.0,608.0
1045,592.0,605.0
1046,590.0,602.0
1047,584.0,596.0
1048,587.0,587.0
1049,591.0,592.0
1050,594.0,599.0
1051,595.0,604.0
1052,595.0,608.0
1053,594.0,612.0
1054,590.0,608.0
1055,585.0,598.0
1056,577.0,598.0
1057,581.0,604.0
1058,585.0,607.0
1059,588.0,610.0
1060,591.0,608.0
1061,592.0,607.0
1062,591.0,604.0
1063,589.0,599.0
1064,586.0,590.0
1065,589.0,589.0
1066,592.0,595.0
1067,595.0,600.0
1068,595.0,605.0
1069,595.0,610.0
1070,592.0,611.0
1071,588.0,605.0
1072,580.0,596.0
1073,579.0,599.0
1074,582.0,604.0
1075,586.0,608.0
1076,590.0,608.0
1077,592.0,608.0
1078,592.0,605.0
1079,591.0,602.0
1080,585.0,597.0
1081,586.0,588.0
1082,590.0,591.0
1083,593.0,597.0
1084,595.0,602.0
1085,596.0,608.0
1086,594.0,611.0
1087,591.0,611.0
1088,587.0,602.0
1089,578.0,596.0
1090,580.0,601.0
1091,584.0,606.0
1092,588.0,609.0
1093,591.0,609.0
1094,592.0,608.0
1095,591.0,605.0
1096,590.0,601.0
1097,585.0,594.0
1098,589.0,589.0
1099,592.0,593.0
1100,595.0,598.0
1101,596.0,603.0
1102,595.0,608.0
1103,593.0,612.0
1104,590.0,608.0
1105,584.0,598.0
1106,577.0,597.0
1107,581.0,603.0
1108,586.0,607.0
1109,588.0,609.0
1110,591.0,609.0
1111,592.0,606.0
1112,591.0,603.0
1113,588.0,599.0
1114,586.0,590.0
1115,590.0,589.0
1116,593.0,595.0
1117,595.0,600.0
1118,596.0,606.0
1119,596.0,610.0
1120,592.0,611.0
1121,589.0,603.0
1122,581.0,596.0
1123,579.0,600.0
1124,583.0,605.0
1125,587.0,608.0
1126,591.0,609.0
1127,592.0,608.0
1128,592.0,606.0
1129,591.0,602.0
1130,585.0,596.0
1131,587.0,587.0
1132,590.0,590.0
1133,593.0,596.0
1134,596.0,602.0
1135,595.0,606.0
1136,595.0,611.0
1137,591.0,609.0
1138,587.0,599.0
1139,577.0,596.0
1140,580.0,601.0
1141,584.0,606.0
1142,587.0,609.0
1143,591.0,609.0
1144,592.0,607.0
1145,591.0,604.0
1146,589.0,600.0
1147,585.0,593.0
1148,588.0,588.0
1149,592.0,593.0
1150,594.0,598.0
1151,596.0,604.0
1152,596.0,608.0
1153,593.0,612.0
1154,590.0,607.0
1155,585.0,597.0
1156,577.0,598.0
1157,582.0,604.0
1158,585.0,607.0
1159,589.0,609.0
1160,591.0,609.0
1161,593.0,606.0
1162,590.0,603.0
1163,588.0,598.0
1164,586.0,589.0
1165,589.0,589.0
1166,593.0,594.0
1167,595.0,599.0
1168,596.0,605.0
1169,595.0,610.0
1170,592.0,611.0
1171,589.0,603.0
1172,580.0,596.0
1173,579.0,600.0
1174,583.0,605.0
1175,586.0,608.0
1176,590.0,608.0
1177,592.0,607.0
1178,592.0,605.0
1179,591.0,601.0
1180,585.0,596.0
1181,588.0,586.0
1182,591.0,590.0
1183,594.0,596.0
1184,597.0,601.0
1185,595.0,607.0
1186,594.0,611.0
1187,591.0,609.0
1188,586.0,598.0
1189,577.0,595.0
1190,580.0,601.0
1191,584.0,605.0
1192,588.0,608.0
1193,591.0,609.0
1194,592.0,607.0
1195,591.0,604.0
1196,590.0,600.0
1197,584.0,592.0
1198,588.0,587.0
1199,592.0,592.0
1200,595.0,598.0
1201,596.0,603.0
1202,595.0,608.0
1203,592.0,611.0
1204,589.0,607.0
1205,583.0,596.0
1206,578.0,598.0
1207,582.0,603.0
1208,585.0,607.0
1209,590.0,609.0
1210,592.0,608.0
1211,592.0,606.0
1212,591.0,603.0
1213,588.0,597.0
1214,586.0,589.0
1215,590.0,589.0
1216,593.0,594.0
1217,595.0,600.0
1218,596.0,605.0
1219,596.0,610.0
1220,592.0,610.0
1221,588.0,602.0
1222,580.0,595.0
1223,579.0,600.0
1224,584.0,605.0
1225,587.0,608.0
1226,590.0,608.0
1227,592.0,607.0
1228,592.0,605.0
1229,591.0,601.0
1230,584.0,595.0
1231,587.0,587.0
1232,590.0,591.0
1233,594.0,596.0
1234,596.0,601.0
1235,595.0,606.0
1236,594.0,610.0
1237,591.0,608.0
1238,587.0,598.0
1239,578.0,596.0
1240,581.0,601.0
1241,584.0,606.0
1242,588.0,608.0
1243,591.0,608.0
1244,592.0,606.0
1245,592.0,603.0
1246,589.0,599.0
1247,586.0,591.0
1248,588.0,587.0
1249,593.0,593.0
1250,595.0,598.0
1251,596.0,603.0
1252,595.0,608.0
1253,593.0,611.0
1254,589.0,605.0
1255,582.0,595.0
1256,578.0,598.0
1257,582.0,603.0
1258,586.0,607.0
1259,590.0,608.0
1260,592.0,607.0
1261,592.0,605.0
1262,591.0,602.0
1263,587.0,597.0
1264,586.0,587.0
1265,590.0,590.0
1266,593.0,595.0
1267,596.0,600.0
1268,596.0,606.0
1269,595.0,610.0
1270,592.0,611.0
1271,588.0,602.0
1272,580.0,596.0
1273,580.0,600.0
1274,584.0,606.0
1275,588.0,608.0
1276,591.0,608.0
1277,593.0,607.0
1278,592.0,604.0
1279,590.0,601.0
1280,585.0,595.0
1281,588.0,586.0
1282,591.0,591.0
1283,594.0,596.0
1284,596.0,601.0
1285,595.0,607.0
1286,594.0,611.0
1287,591.0,608.0
1288,586.0,599.0
1289,578.0,596.0
1290,581.0,602.0
1291,585.0,607.0
1292,588.0,609.0
1293,591.0,608.0
1294,593.0,607.0
1295,591.0,604.0
1296,589.0,599.0
1297,585.0,591.0
1298,589.0,588.0
1299,593.0,594.0
1300,596.0,599.0
1301,596.0,605.0
1302,595.0,609.0
1303,593.0,612.0
1304,589.0,606.0
1305,582.0,597.0
1306,578.0,600.0
1307,582.0,605.0
1308,586.0,609.0
1309,590.0,609.0
1310,592.0,609.0
1311,593.0,607.0
1312,591.0,604.0
1313,586.0,599.0
1314,586.0,589.0
1315,590.0,592.0
1316,594.0,597.0
1317,596.0,603.0
1318,596.0,608.0
1319,595.0,612.0
1320,592.0,612.0
1321,588.0,604.0
1322,579.0,597.0
1323,580.0,603.0
1324,584.0,607.0
1325,588.0,610.0
1326,591.0,611.0
1327,593.0,610.0
1328,592.0,607.0
1329,590.0,603.0
1330,585.0,596.0
1331,588.0,590.0
1332,591.0,594.0
1333,594.0,600.0
1334,596.0,606.0
1335,596.0,610.0
1336,594.0,613.0
1337,591.0,611.0
1338,585.0,599.0
1339,578.0,599.0
1340,581.0,605.0
1341,585.0,608.0
1342,588.0,610.0
1343,592.0,611.0
1344,593.0,609.0
1345,592.0,606.0
1346,589.0,601.0
1347,586.0,593.0
1348,589.0,592.0
1349,592.0,597.0
1350,596.0,602.0
1351,596.0,608.0
1352,596.0,613.0
1353,593.0,614.0
1354,590.0,607.0
1355,581.0,599.0
1356,579.0,602.0
1357,582.0,607.0
1358,586.0,610.0
1359,590.0,612.0
1360,592.0,611.0
1361,593.0,609.0
1362,591.0,605.0
1363,585.0,600.0
1364,587.0,591.0
1365,591.0,594.0
1366,594.0,599.0
1367,595.0,605.0
1368,596.0,610.0
1369,595.0,613.0
1370,592.0,613.0
1371,587.0,605.0
1372,578.0,600.0
1373,580.0,605.0
1374,584.0,610.0
1375,588.0,613.0
1376,591.0,612.0
1377,593.0,612.0
1378,592.0,609.0
1379,589.0,605.0
1380,584.0,598.0
1381,588.0,592.0
1382,592.0,597.0
1383,594.0,602.0
1384,597.0,608.0
1385,596.0,613.0
1386,594.0,616.0
1387,590.0,613.0
1388,586.0,603.0
1389,578.0,602.0
1390,582.0,607.0
1391,586.0,612.0
1392,589.0,613.0
1393,592.0,614.0
1394,593.0,612.0
1395,591.0,609.0
1396,589.0,604.0
1397,586.0,594.0
1398,589.0,593.0
1399,593.0,599.0
1400,596.0,604.0
1401,596.0,610.0
1402,595.0,614.0
1403,593.0,616.0
1404,589.0,609.0
1405,582.0,601.0
1406,579.0,604.0
1407,583.0,609.0
1408,587.0,612.0
1409,591.0,614.0
1410,592.0,612.0
1411,592.0,610.0
1412,591.0,607.0
1413,586.0,602.0
1414,587.0,592.0
1415,590.0,595.0
1416,594.0,600.0
1417,596.0,606.0
1418,596.0,611.0
1419,595.0,615.0
1420,591.0,614.0
1421,587.0,605.0
1422,579.0,600.0
1423,581.0,606.0
1424,584.0,610.0
1425,588.0,612.0
1426,591.0,613.0
1427,592.0,612.0
1428,592.0,609.0
1429,590.0,605.0
1430,584.0,597.0
1431,588.0,591.0
1432,592.0,597.0
1433,595.0,602.0
1434,596.0,607.0
1435,596.0,612.0
1436,594.0,616.0
1437,591.0,612.0
1438,585.0,601.0
1439,578.0,601.0
1440,581.0,607.0
1441,585.0,611.0
1442,589.0,612.0
1443,592.0,612.0
1444,593.0,611.0
1445,592.0,607.0
1446,589.0,603.0
1447,586.0,593.0
1448,590.0,593.0
1449,593.0,598.0
1450,596.0,604.0
1451,597.0,608.0
1452,596.0,613.0
1453,592.0,614.0
1454,589.0,606.0
1455,582.0,598.0
1456,579.0,602.0
1457,584.0,607.0
1458,588.0,610.0
1459,591.0,611.0
1460,592.0,611.0
1461,592.0,608.0
1462,591.0,604.0
1463,586.0,599.0
1464,587.0,589.0
1465,591.0,592.0
1466,594.0,598.0
1467,596.0,603.0
1468,596.0,608.0
1469,594.0,613.0
1470,591.0,612.0
1471,587.0,602.0
1472,578.0,598.0
1473,581.0,604.0
1474,584.0,608.0
1475,588.0,611.0
1476,592.0,610.0
1477,592.0,609.0
1478,592.0,606.0
1479,590.0,602.0
1480,585.0,595.0
1481,588.0,589.0
1482,592.0,595.0
1483,595.0,600.0
1484,597.0,605.0
1485,596.0,611.0
1486,594.0,613.0
1487,590.0,609.0
1488,584.0,598.0
1489,578.0,600.0
1490,582.0,605.0
1491,586.0,609.0
1492,590.0,610.0
1493,592.0,610.0
1494,592.0,608.0
1495,591.0,605.0
1496,589.0,600.0
1497,587.0,591.0
1498,590.0,591.0
1499,593.0,597.0
1500,596.0,602.0
1501,597.0,607.0
1502,596.0,612.0
1503,593.0,612.0
1504,589.0,605.0
1505,581.0,597.0
1506,580.0,602.0
1507,584.0,607.0
1508,587.0,610.0
1509,590.0,611.0
1510,592.0,609.0
1511,593.0,607.0
1512,591.0,603.0
1513,585.0,598.0
1514,587.0,588.0
1515,591.0,593.0
1516,594.0,598.0
1517,596.0,604.0
1518,595.0,608.0
1519,594.0,612.0
1520,591.0,611.0
1521,586.0,601.0
1522,577.0,598.0
1523,580.0,604.0
1524,585.0,608.0
1525,588.0,611.0
1526,591.0,610.0
1527,592.0,609.0
1528,592.0,606.0
1529,590.0,602.0
1530,585.0,593.0
1531,589.0,590.0
1532,592.0,596.0
1533,596.0,602.0
1534,596.0,606.0
1535,596.0,611.0
1536,593.0,614.0
1537,590.0,609.0
1538,584.0,600.0
1539,579.0,601.0
1540,582.0,606.0
1541,586.0,610.0
1542,590.0,612.0
1543,592.0,612.0
1544,593.0,610.0
1545,591.0,606.0
1546,588.0,602.0
1547,586.0,591.0
1548,590.0,594.0
1549,593.0,599.0
1550,596.0,604.0
1551,596.0,610.0
1552,595.0,614.0
1553,592.0,615.0
1554,588.0,607.0
1555,580.0,600.0
1556,580.0,603.0
1557,584.0,610.0
1558,588.0,612.0
1559,591.0,613.0
1560,592.0,612.0
1561,593.0,610.0
1562,591.0,606.0
1563,585.0,600.0
1564,588.0,592.0
1565,591.0,596.0
1566,594.0,602.0
1567,596.0,607.0
1568,596.0,612.0
1569,594.0,615.0
1570,592.0,614.0
1571,586.0,603.0
1572,579.0,602.0
1573,581.0,607.0
1574,585.0,611.0
1575,588.0,613.0
1576,591.0,614.0
1577,592.0,612.0
1578,592.0,609.0
1579,590.0,605.0
1580,586.0,597.0
1581,588.0,594.0
1582,593.0,599.0
1583,595.0,605.0
1584,596.0,609.0
1585,595.0,614.0
1586,593.0,617.0
1587,590.0,612.0
1588,583.0,603.0
1589,579.0,604.0
1590,583.0,610.0
1591,586.0,613.0
1592,590.0,615.0
1593,592.0,615.0
1594,593.0,613.0
1595,591.0,610.0
1596,588.0,605.0
1597,586.0,595.0
1598,590.0,597.0
1599,593.0,603.0
1600,595.0,607.0
1601,596.0,613.0
1602,595.0,617.0
1603,592.0,617.0
1604,589.0,610.0
1605,579.0,602.0
1606,580.0,607.0
1607,584.0,612.0
1608,587.0,615.0
1609,591.0,617.0
1610,593.0,616.0
1611,592.0,613.0
1612,591.0,609.0
1613,585.0,603.0
1614,588.0,596.0
1615,592.0,601.0
1616,595.0,605.0
1617,597.0,610.0
1618,597.0,616.0
1619,594.0,618.0
1620,591.0,616.0
1621,586.0,607.0
1622,578.0,604.0
1623,582.0,609.0
1624,585.0,614.0
1625,589.0,617.0
1626,592.0,617.0
1627,593.0,616.0
1628,592.0,612.0
1629,589.0,609.0
1630,585.0,599.0
1631,589.0,598.0
1632,593.0,603.0
1633,595.0,608.0
1634,596.0,613.0
1635,596.0,618.0
1636,593.0,620.0
1637,590.0,615.0
1638,583.0,606.0
1639,579.0,607.0
1640,583.0,612.0
1641,586.0,616.0
1642,590.0,618.0
1643,592.0,618.0
1644,592.0,616.0
1645,591.0,613.0
1646,586.0,608.0
1647,587.0,598.0
1648,590.0,601.0
1649,593.0,606.0
1650,596.0,611.0
1651,596.0,616.0
1652,595.0,620.0
1653,592.0,620.0
1654,588.0,612.0
1655,579.0,605.0
1656,580.0,610.0
1657,583.0,614.0
1658,588.0,617.0
1659,591.0,618.0
1660,593.0,618.0
1661,592.0,615.0
1662,590.0,612.0
1663,584.0,605.0
1664,588.0,598.0
1665,592.0,603.0
1666,595.0,608.0
1667,596.0,613.0
1668,596.0,617.0
1669,594.0,620.0
1670,591.0,618.0
1671,586.0,607.0
1672,579.0,605.0
1673,582.0,611.0
1674,585.0,616.0
1675,589.0,619.0
1676,592.0,619.0
1677,593.0,617.0
1678,592.0,613.0
1679,590.0,609.0
1680,587.0,600.0
1681,590.0,598.0
1682,592.0,603.0
1683,596.0,608.0
1684,597.0,614.0
1685,596.0,618.0
1686,593.0,620.0
1687,590.0,614.0
1688,582.0,604.0
1689,579.0,606.0
1690,582.0,611.0
1691,587.0,616.0
1692,590.0,617.0
1693,592.0,616.0
1694,593.0,614.0
1695,592.0,611.0
1696,586.0,605.0
1697,587.0,596.0
1698,590.0,598.0
1699,594.0,603.0
1700,596.0,609.0
1701,597.0,613.0
1702,595.0,617.0
1703,591.0,618.0
1704,587.0,608.0
1705,579.0,602.0
1706,580.0,606.0
1707,584.0,612.0
1708,588.0,616.0
1709,591.0,615.0
1710,592.0,614.0
1711,593.0,611.0
1712,590.0,608.0
1713,584.0,601.0
1714,589.0,593.0
1715,591.0,598.0
1716,595.0,604.0
1717,596.0,609.0
1718,596.0,614.0
1719,594.0,617.0
1720,590.0,614.0
1721,585.0,603.0
1722,579.0,602.0
1723,582.0,608.0
1724,585.0,612.0
1725,589.0,613.0
1726,592.0,613.0
1727,592.0,611.0
1728,591.0,608.0
1729,589.0,604.0
1730,585.0,594.0
1731,589.0,593.0
1732,592.0,599.0
1733,595.0,604.0
1734,596.0,609.0
1735,595.0,613.0
1736,593.0,616.0
1737,588.0,609.0
1738,582.0,600.0
1739,578.0,603.0
1740,583.0,609.0
1741,587.0,612.0
1742,590.0,613.0
1743,592.0,612.0
1744,593.0,610.0
1745,591.0,606.0
1746,585.0,601.0
1747,587.0,591.0
1748,591.0,594.0
1749,594.0,599.0
1750,596.0,605.0
1751,595.0,609.0
1752,595.0,615.0
1753,591.0,613.0
1754,588.0,603.0
1755,578.0,599.0
1756,580.0,604.0
1757,584.0,608.0
1758,587.0,611.0
1759,592.0,611.0
1760,592.0,610.0
1761,592.0,607.0
1762,591.0,603.0
1763,585.0,595.0
1764,588.0,590.0
1765,592.0,595.0
1766,595.0,600.0
1767,597.0,605.0
1768,596.0,611.0
1769,594.0,613.0
1770,590.0,610.0
1771,585.0,599.0
1772,577.0,599.0
1773,581.0,605.0
1774,586.0,608.0
1775,589.0,610.0
1776,591.0,610.0
1777,592.0,608.0
1778,591.0,605.0
1779,588.0,600.0
1780,585.0,591.0
1781,589.0,591.0
1782,593.0,596.0
1783,595.0,601.0
1784,596.0,607.0
1785,595.0,611.0
1786,592.0,612.0
1787,588.0,605.0
1788,579.0,596.0
1789,578.0,600.0
1790,582.0,606.0
1791,586.0,609.0
1792,589.0,610.0
1793,591.0,609.0
1794,592.0,607.0
1795,590.0,603.0
1796,584.0,598.0
1797,587.0,588.0
1798,590.0,592.0
1799,594.0,597.0
1800,595.0,602.0
1801,595.0,608.0
1802,594.0,612.0
1803,592.0,611.0
1804,587.0,601.0
1805,578.0,597.0
1806,580.0,603.0
1807,584.0,607.0
1808,588.0,609.0
1809,591.0,610.0
1810,593.0,608.0
1811,592.0,605.0
1812,590.0,601.0
1813,585.0,593.0
1814,589.0,587.0
1815,592.0,593.0
1816,595.0,598.0
1817,596.0,603.0
1818,595.0,608.0
1819,594.0,612.0
1820,590.0,607.0
1821,584.0,596.0
1822,578.0,597.0
1823,581.0,603.0
1824,585.0,607.0
1825,588.0,609.0
1826,591.0,608.0
1827,592.0,606.0
1828,591.0,604.0
1829,587.0,598.0
1830,585.0,589.0
1831,589.0,589.0
1832,592.0,594.0
1833,595.0,599.0
1834,596.0,605.0
1835,595.0,610.0
1836,592.0,611.0
1837,587.0,602.0
1838,580.0,596.0
1839,579.0,600.0
1840,584.0,604.0
1841,586.0,607.0
1842,590.0,609.0
1843,592.0,607.0
1844,592.0,605.0
1845,590.0,601.0
1846,584.0,596.0
1847,587.0,587.0
1848,590.0,590.0
1849,594.0,595.0
1850,596.0,601.0
1851,595.0,606.0
1852,594.0,611.0
1853,591.0,609.0
1854,586.0,598.0
1855,578.0,596.0
1856,581.0,601.0
1857,585.0,606.0
1858,588.0,608.0
1859,591.0,608.0
1860,592.0,607.0
1861,591.0,603.0
1862,590.0,599.0
1863,584.0,592.0
1864,589.0,587.0
1865,592.0,592.0
1866,595.0,597.0
1867,596.0,602.0
1868,595.0,608.0
1869,593.0,611.0
1870,590.0,605.0
1871,583.0,595.0
1872,579.0,597.0
1873,582.0,602.0
1874,586.0,606.0
1875,589.0,607.0
1876,592.0,607.0
1877,592.0,605.0
1878,591.0,601.0
1879,587.0,597.0
1880,586.0,587.0
1881,590.0,588.0
1882,593.0,593.0
1883,595.0,599.0
1884,596.0,604.0
1885,595.0,609.0
1886,592.0,610.0
1887,588.0,601.0
1888,579.0,595.0
1889,579.0,599.0
1890,583.0,604.0
1891,586.0,607.0
1892,590.0,608.0
1893,592.0,607.0
1894,592.0,604.0
1895,590.0,600.0
1896,584.0,595.0
1897,587.0,587.0
1898,591.0,591.0
1899,594.0,596.0
1900,596.0,602.0
1901,596.0,607.0
1902,594.0,610.0
1903,591.0,608.0
1904,586.0,598.0
1905,578.0,597.0
1906,581.0,601.0
1907,585.0,605.0
1908,588.0,608.0
1909,592.0,608.0
1910,593.0,606.0
1911,592.0,603.0
1912,589.0,600.0
1913,585.0,591.0
1914,589.0,588.0
1915,593.0,593.0
1916,596.0,599.0
1917,597.0,604.0
1918,596.0,609.0
1919,593.0,611.0
1920,589.0,605.0
1921,583.0,596.0
1922,579.0,598.0
1923,583.0,604.0
1924,586.0,607.0
1925,590.0,609.0
1926,593.0,608.0
1927,592.0,606.0
1928,591.0,602.0
1929,587.0,598.0
1930,586.0,589.0
1931,589.0,590.0
1932,594.0,596.0
1933,596.0,601.0
1934,597.0,606.0
1935,595.0,611.0
1936,593.0,611.0
1937,588.0,602.0
1938,580.0,595.0
1939,580.0,600.0
1940,584.0,605.0
1941,587.0,608.0
1942,591.0,609.0
1943,592.0,607.0
1944,592.0,605.0
1945,590.0,601.0
1946,584.0,595.0
1947,588.0,587.0
1948,591.0,592.0
1949,594.0,597.0
1950,596.0,603.0
1951,596.0,608.0
1952,594.0,611.0
1953,590.0,609.0
1954,586.0,599.0
1955,578.0,597.0
1956,581.0,602.0
1957,585.0,607.0
1958,589.0,609.0
1959,591.0,609.0
1960,592.0,607.0
1961,592.0,604.0
1962,590.0,600.0
1963,585.0,591.0
1964,589.0,589.0
1965,592.0,594.0
1966,595.0,599.0
1967,596.0,605.0
1968,595.0,610.0
1969,593.0,612.0
1970,590.0,606.0
1971,583.0,597.0
1972,579.0,599.0
1973,583.0,604.0
1974,587.0,609.0
1975,590.0,609.0
1976,592.0,609.0
1977,592.0,607.0
1978,591.0,604.0
1979,587.0,599.0
1980,587.0,589.0
1981,591.0,591.0
1982,594.0,597.0
1983,596.0,603.0
1984,597.0,608.0
1985,596.0,612.0
1986,593.0,611.0
1987,589.0,602.0
1988,579.0,596.0
1989,580.0,601.0
1990,585.0,606.0
1991,588.0,608.0
1992,592.0,609.0
1993,592.0,608.0
1994,592.0,605.0
1995,591.0,602.0
1996,584.0,596.0
1997,588.0,588.0
1998,592.0,593.0
1999,595.0,599.0
2000,597.0,604.0
2001,596.0,608.0
2002,594.0,612.0
2003,591.0,609.0
2004,586.0,598.0
2005,578.0,598.0
2006,581.0,603.0
2007,586.0,608.0
2008,589.0,610.0
2009,593.0,609.0
2010,593.0,607.0
2011,593.0,605.0
2012,589.0,600.0
2013,586.0,591.0
2014,590.0,589.0
2015,593.0,594.0
2016,595.0,600.0
2017,597.0,606.0
2018,596.0,610.0
2019,593.0,612.0
2020,589.0,606.0
2021,581.0,596.0
2022,578.0,599.0
2023,582.0,604.0
2024,587.0,608.0
2025,590.0,609.0
2026,592.0,609.0
2027,593.0,607.0
2028,591.0,603.0
2029,585.0,598.0
2030,587.0,589.0
2031,590.0,591.0
2032,594.0,597.0
2033,596.0,602.0
2034,597.0,607.0
2035,595.0,611.0
2036,592.0,611.0
2037,588.0,601.0
2038,579.0,596.0
2039,580.0,601.0
2040,585.0,606.0
2041,588.0,609.0
2042,591.0,609.0
2043,592.0,608.0
2044,593.0,606.0
2045,590.0,601.0
2046,584.0,594.0
2047,588.0,588.0
2048,593.0,593.0
2049,595.0,599.0
2050,596.0,604.0
2051,595.0,608.0
2052,594.0,612.0
2053,590.0,608.0
2054,585.0,597.0
2055,577.0,597.0
2056,581.0,602.0
2057,585.0,607.0
2058,588.0,609.0
2059,592.0,609.0
2060,592.0,607.0
2061,591.0,604.0
2062,589.0,599.0
2063,586.0,590.0
2064,589.0,589.0
2065,592.0,594.0
2066,595.0,599.0
2067,596.0,606.0
2068,595.0,609.0
2069,592.0,611.0
2070,589.0,604.0
2071,581.0,596.0
2072,579.0,599.0
2073,583.0,605.0
2074,586.0,607.0
2075,590.0,609.0
2076,592.0,609.0
2077,592.0,606.0
2078,591.0,602.0
2079,585.0,596.0
2080,587.0,588.0
2081,590.0,591.0
2082,594.0,596.0
2083,596.0,602.0
2084,596.0,607.0
2085,594.0,611.0
2086,592.0,611.0
2087,587.0,600.0
2088,579.0,595.0
2089,581.0,601.0
2090,584.0,606.0
2091,588.0,607.0
2092,591.0,608.0
2093,593.0,608.0
2094,592.0,604.0
2095,590.0,600.0
2096,585.0,593.0
2097,588.0,587.0
2098,592.0,592.0
2099,595.0,597.0
2100,596.0,603.0
2101,595.0,608.0
2102,593.0,611.0
2103,591.0,607.0
2104,585.0,596.0
2105,578.0,597.0
2106,582.0,602.0
2107,585.0,606.0
2108,589.0,608.0
2109,591.0,608.0
2110,592.0,606.0
2111,591.0,603.0
2112,588.0,598.0
2113,586.0,589.0
2114,589.0,589.0
2115,593.0,595.0
2116,595.0,600.0
2117,596.0,605.0
2118,595.0,610.0
2119,592.0,611.0
2120,588.0,603.0
2121,581.0,596.0
2122,579.0,600.0
2123,583.0,604.0
2124,586.0,607.0
2125,591.0,609.0
2126,592.0,608.0
2127,592.0,606.0
2128,590.0,602.0
2129,585.0,597.0
2130,587.0,587.0
2131,591.0,591.0
2132,594.0,596.0
2133,596.0,602.0
2134,596.0,607.0
2135,595.0,611.0
2136,591.0,609.0
2137,587.0,600.0
2138,578.0,596.0
2139,580.0,601.0
2140,585.0,606.0
2141,588.0,608.0
2142,591.0,609.0
2143,593.0,607.0
2144,592.0,604.0
2145,590.0,600.0
2146,585.0,594.0
2147,588.0,587.0
2148,592.0,593.0
2149,595.0,598.0
2150,597.0,603.0
2151,596.0,609.0
2152,594.0,611.0
2153,590.0,607.0
2154,584.0,597.0
2155,578.0,597.0
2156,582.0,603.0
2157,585.0,606.0
2158,589.0,608.0
2159,591.0,608.0
2160,592.0,606.0
2161,592.0,603.0
2162,589.0,598.0
2163,586.0,589.0
2164,589.0,589.0
2165,593.0,595.0
2166,596.0,600.0
2167,596.0,606.0
2168,595.0,610.0
2169,592.0,611.0
2170,588.0,604.0
2171,580.0,596.0
2172,579.0,600.0
2173,584.0,604.0
2174,587.0,609.0
2175,590.0,608.0
2176,592.0,608.0
2177,592.0,605.0
2178,591.0,601.0
2179,585.0,596.0
2180,587.0,588.0
2181,591.0,591.0
2182,594.0,597.0
2183,597.0,601.0
2184,597.0,606.0
2185,594.0,611.0
2186,592.0,609.0
2187,586.0,599.0
2188,578.0,595.0
2189,580.0,601.0
2190,585.0,606.0
2191,588.0,608.0
2192,591.0,609.0
2193,592.0,607.0
2194,592.0,604.0
2195,590.0,600.0
2196,585.0,592.0
2197,589.0,587.0
2198,592.0,592.0
2199,595.0,598.0
2200,596.0,603.0
2201,596.0,608.0
2202,593.0,611.0
2203,589.0,606.0
2204,584.0,595.0
2205,578.0,596.0
2206,582.0,602.0
2207,585.0,606.0
2208,589.0,608.0
2209,592.0,607.0
2210,593.0,605.0
2211,591.0,601.0
2212,587.0,597.0
2213,586.0,587.0
2214,589.0,588.0
2215,593.0,593.0
2216,595.0,599.0
2217,596.0,605.0
2218,594.0,608.0
2219,592.0,610.0
2220,588.0,602.0
2221,580.0,595.0
2222,579.0,599.0
2223,583.0,605.0
2224,587.0,607.0
2225,591.0,608.0
2226,592.0,607.0
2227,592.0,605.0
2228,591.0,601.0
2229,585.0,595.0
2230,587.0,586.0
2231,591.0,590.0
2232,595.0,595.0
2233,596.0,602.0
2234,596.0,606.0
2235,594.0,610.0
2236,591.0,608.0
2237,587.0,597.0
2238,578.0,595.0
2239,581.0,600.0
2240,585.0,605.0
2241,588.0,608.0
2242,591.0,607.0
2243,592.0,606.0
2244,591.0,603.0
2245,589.0,598.0
2246,585.0,591.0
2247,589.0,587.0
2248,592.0,592.0
2249,595.0,597.0
2250,596.0,602.0
2251,595.0,607.0
2252,593.0,610.0
2253,590.0,605.0
2254,583.0,594.0
2255,578.0,596.0
2256,582.0,603.0
2257,586.0,606.0
2258,590.0,607.0
2259,591.0,606.0
2260,592.0,605.0
2261,591.0,602.0
2262,587.0,597.0
2263,586.0,587.0
2264,590.0,588.0
2265,593.0,594.0
2266,596.0,599.0
2267,596.0,605.0
2268,595.0,609.0
2269,592.0,610.0
2270,588.0,601.0
2271,580.0,595.0
2272,580.0,599.0
2273,584.0,604.0
2274,587.0,606.0
2275,591.0,607.0
2276,593.0,606.0
2277,593.0,604.0
2278,590.0,600.0
2279,585.0,593.0
2280,588.0,585.0
2281,591.0,590.0
2282,595.0,594.0
2283,596.0,600.0
2284,596.0,606.0
2285,594.0,609.0
2286,591.0,607.0
2287,585.0,596.0
2288,578.0,594.0
2289,581.0,599.0
2290,584.0,604.0
2291,588.0,605.0
2292,591.0,606.0
2293,593.0,604.0
2294,591.0,602.0
2295,589.0,596.0
2296,586.0,588.0
2297,589.0,585.0
2298,592.0,590.0
2299,595.0,595.0
2300,596.0,601.0
2301,596.0,606.0
2302,593.0,608.0
2303,590.0,602.0
2304,583.0,593.0
2305,579.0,596.0
2306,582.0,601.0
2307,586.0,604.0
2308,589.0,606.0
2309,592.0,605.0
2310,592.0,604.0
2311,591.0,599.0
2312,587.0,595.0
2313,586.0,585.0
2314,590.0,587.0
2315,594.0,592.0
2316,596.0,598.0
2317,597.0,604.0
2318,595.0,608.0
2319,592.0,607.0
2320,587.0,598.0
2321,579.0,593.0
2322,580.0,598.0
2323,584.0,603.0
2324,587.0,605.0
2325,590.0,606.0
2326,593.0,605.0
2327,592.0,602.0
2328,591.0,598.0
2329,584.0,591.0
2330,588.0,583.0
2331,591.0,588.0
2332,594.0,593.0
2333,597.0,600.0
2334,596.0,604.0
2335,594.0,608.0
2336,590.0,605.0
2337,586.0,594.0
2338,578.0,593.0
2339,581.0,599.0
2340,584.0,603.0
2341,588.0,605.0
2342,591.0,605.0
2343,592.0,603.0
2344,591.0,600.0
2345,588.0,595.0
2346,585.0,587.0
2347,589.0,584.0
2348,592.0,590.0
2349,595.0,595.0
2350,596.0,601.0
2351,596.0,606.0
2352,593.0,609.0
2353,589.0,602.0
2354,582.0,593.0
2355,578.0,596.0
2356,582.0,601.0
2357,586.0,605.0
2358,589.0,606.0
2359,592.0,605.0
2360,592.0,603.0
2361,591.0,599.0
2362,586.0,595.0
2363,586.0,585.0
2364,590.0,587.0
2365,593.0,592.0
2366,596.0,598.0
2367,596.0,603.0
2368,594.0,608.0
2369,591.0,607.0
2370,587.0,599.0
2371,579.0,593.0
2372,580.0,599.0
2373,583.0,603.0
2374,587.0,606.0
2375,590.0,607.0
2376,592.0,605.0
2377,592.0,603.0
2378,590.0,599.0
2379,585.0,592.0
2380,588.0,584.0
2381,591.0,589.0
2382,595.0,594.0
2383,596.0,600.0
2384,596.0,605.0
2385,594.0,608.0
2386,591.0,605.0
2387,586.0,595.0
2388,578.0,595.0
2389,581.0,600.0
2390,585.0,605.0
2391,589.0,606.0
2392,592.0,606.0
2393,592.0,604.0
2394,591.0,601.0
2395,589.0,597.0
2396,586.0,587.0
2397,589.0,586.0
2398,592.0,591.0
2399,595.0,597.0
2400,596.0,602.0
2401,595.0,608.0
2402,593.0,610.0
2403,589.0,603.0
2404,582.0,594.0
2405,579.0,597.0
2406,583.0,603.0
2407,586.0,607.0
2408,590.0,607.0
2409,592.0,606.0
2410,593.0,603.0
2411,592.0,601.0
2412,585.0,595.0
2413,587.0,586.0
2414,590.0,588.0
2415,594.0,594.0
2416,595.0,600.0
2417,596.0,604.0
2418,594.0,609.0
2419,591.0,609.0
2420,588.0,599.0
2421,578.0,594.0
2422,581.0,600.0
2423,584.0,604.0
2424,588.0,607.0
2425,591.0,607.0
2426,592.0,605.0
2427,593.0,603.0
2428,590.0,599.0
2429,585.0,593.0
2430,588.0,585.0
2431,592.0,591.0
2432,595.0,596.0
2433,597.0,601.0
2434,597.0,606.0
2435,594.0,610.0
2436,590.0,606.0
2437,585.0,595.0
2438,578.0,595.0
2439,581.0,601.0
2440,585.0,605.0
2441,589.0,607.0
2442,591.0,607.0
2443,592.0,604.0
2444,591.0,601.0
2445,588.0,597.0
2446,585.0,588.0
2447,590.0,587.0
2448,593.0,592.0
2449,595.0,598.0
2450,596.0,603.0
2451,596.0,608.0
2452,592.0,610.0
2453,589.0,602.0
2454,581.0,594.0
2455,579.0,597.0
2456,583.0,603.0
2457,586.0,606.0
2458,590.0,607.0
2459,592.0,607.0
2460,592.0,604.0
2461,591.0,600.0
2462,585.0,595.0
2463,587.0,585.0
2464,591.0,589.0
2465,594.0,594.0
2466,596.0,599.0
2467,596.0,605.0
2468,594.0,609.0
2469,591.0,608.0
2470,588.0,599.0
2471,578.0,594.0
2472,581.0,600.0
2473,584.0,605.0
2474,588.0,607.0
2475,591.0,607.0
2476,592.0,606.0
2477,592.0,603.0
2478,589.0,599.0
2479,584.0,592.0
2480,588.0,586.0
2481,591.0,591.0
2482,595.0,597.0
2483,596.0,602.0
2484,596.0,607.0
2485,594.0,611.0
2486,591.0,607.0
2487,585.0,596.0
2488,578.0,596.0
2489,582.0,602.0
2490,586.0,606.0
2491,589.0,608.0
2492,592.0,607.0
2493,593.0,605.0
2494,592.0,602.0
2495,589.0,598.0
2496,586.0,588.0
2497,590.0,588.0
2498,593.0,593.0
2499,596.0,599.0
2500,597.0,605.0
2501,595.0,608.0
2502,592.0,610.0
2503,588.0,603.0
2504,580.0,594.0
2505,579.0,598.0
2506,583.0,603.0
2507,587.0,606.0
2508,590.0,607.0
2509,592.0,607.0
2510,592.0,604.0
2511,591.0,601.0
2512,585.0,595.0
2513,587.0,587.0
2514,591.0,590.0
2515,594.0,595.0
2516,595.0,601.0
2517,595.0,606.0
2518,595.0,609.0
2519,591.0,609.0
2520,587.0,598.0
2521,579.0,594.0
2522,580.0,600.0
2523,584.0,605.0
2524,588.0,607.0
2525,591.0,607.0
2526,592.0,606.0
2527,591.0,603.0
2528,590.0,599.0
2529,585.0,592.0
2530,588.0,587.0
2531,592.0,592.0
2532,595.0,598.0
2533,596.0,602.0
2534,596.0,608.0
2535,593.0,611.0
2536,590.0,607.0
2537,583.0,596.0
2538,578.0,596.0
2539,582.0,602.0
2540,586.0,607.0
2541,589.0,609.0
2542,592.0,608.0
2543,593.0,607.0
2544,592.0,602.0
2545,589.0,597.0
2546,586.0,589.0
2547,589.0,588.0
2548,593.0,593.0
2549,595.0,599.0
2550,596.0,604.0
2551,595.0,609.0
2552,592.0,610.0
2553,588.0,603.0
2554,580.0,595.0
2555,579.0,599.0
2556,583.0,604.0
2557,586.0,607.0
2558,591.0,608.0
2559,593.0,607.0
2560,592.0,605.0
2561,591.0,601.0
2562,584.0,596.0
2563,587.0,587.0
2564,590.0,591.0
2565,594.0,596.0
2566,596.0,602.0
2567,596.0,607.0
2568,594.0,611.0
2569,592.0,609.0
2570,587.0,599.0
2571,578.0,596.0
2572,581.0,601.0
2573,585.0,606.0
2574,589.0,608.0
2575,591.0,609.0
2576,593.0,607.0
2577,592.0,604.0
2578,589.0,600.0
2579,585.0,592.0
2580,588.0,588.0
2581,592.0,593.0
2582,595.0,599.0
2583,597.0,604.0
2584,596.0,609.0
2585,593.0,612.0
2586,590.0,607.0
2587,584.0,597.0
2588,579.0,598.0
2589,583.0,604.0
2590,586.0,607.0
2591,590.0,609.0
2592,593.0,608.0
2593,593.0,606.0
2594,591.0,603.0
2595,588.0,599.0
2596,587.0,589.0
2597,591.0,590.0
2598,593.0,595.0
2599,596.0,601.0
2600,596.0,606.0
2601,595.0,611.0
2602,592.0,611.0
2603,588.0,604.0
2604,580.0,596.0
2605,580.0,600.0
2606,584.0,606.0
2607,588.0,608.0
2608,590.0,610.0
2609,592.0,609.0
2610,592.0,607.0
2611,591.0,603.0
2612,585.0,598.0
2613,587.0,590.0
2614,591.0,593.0
2615,594.0,598.0
2616,596.0,604.0
2617,596.0,609.0
2618,595.0,613.0
2619,591.0,612.0
2620,587.0,601.0
2621,579.0,598.0
2622,581.0,603.0
2623,585.0,607.0
2624,589.0,610.0
2625,592.0,611.0
2626,592.0,609.0
2627,592.0,607.0
2628,590.0,603.0
2629,586.0,595.0
2630,589.0,592.0
2631,592.0,597.0
2632,595.0,602.0
2633,597.0,608.0
2634,596.0,612.0
2635,593.0,614.0
2636,590.0,609.0
2637,583.0,600.0
2638,579.0,600.0
2639,583.0,606.0
2640,587.0,610.0
2641,590.0,611.0
2642,592.0,612.0
2643,593.0,609.0
2644,592.0,607.0
2645,588.0,603.0
2646,588.0,592.0
2647,590.0,593.0
2648,594.0,599.0
2649,597.0,605.0
2650,597.0,609.0
2651,596.0,614.0
2652,592.0,613.0
2653,589.0,605.0
2654,580.0,598.0
2655,580.0,600.0
2656,584.0,607.0
2657,588.0,610.0
2658,591.0,611.0
2659,593.0,610.0
2660,592.0,608.0
2661,591.0,605.0
2662,585.0,598.0
2663,588.0,590.0
2664,592.0,595.0
2665,594.0,600.0
2666,597.0,605.0
2667,596.0,610.0
2668,594.0,614.0
2669,591.0,612.0
2670,587.0,601.0
2671,578.0,597.0
2672,582.0,602.0
2673,585.0,607.0
2674,589.0,609.0
2675,592.0,610.0
2676,593.0,609.0
2677,592.0,606.0
2678,590.0,603.0
2679,586.0,593.0
2680,589.0,591.0
2681,593.0,596.0
2682,595.0,602.0
2683,597.0,607.0
2684,596.0,611.0
2685,594.0,613.0
2686,591.0,608.0
2687,584.0,598.0
2688,579.0,597.0
2689,583.0,602.0
2690,587.0,607.0
2691,590.0,609.0
2692,592.0,609.0
2693,593.0,608.0
2694,592.0,605.0
2695,588.0,600.0
2696,587.0,590.0
2697,590.0,593.0
2698,594.0,599.0
2699,596.0,604.0
2700,597.0,609.0
2701,595.0,612.0
2702,592.0,612.0
2703,588.0,604.0
2704,580.0,595.0
2705,580.0,596.0
2706,584.0,602.0
2707,588.0,606.0
2708,591.0,608.0
2709,593.0,608.0
2710,592.0,606.0
2711,591.0,604.0
2712,585.0,596.0
2713,588.0,591.0
2714,591.0,596.0
2715,595.0,602.0
2716,597.0,606.0
2717,596.0,611.0
2718,595.0,614.0
2719,592.0,610.0
2720,587.0,599.0
2721,579.0,593.0
2722,583.0,595.0
2723,586.0,600.0
2724,589.0,605.0
2725,592.0,607.0
2726,594.0,606.0
2727,592.0,604.0
2728,590.0,600.0
2729,587.0,591.0
2730,590.0,590.0
2731,594.0,595.0
2732,596.0,600.0
2733,596.0,606.0
2734,596.0,610.0
2735,594.0,609.0
2736,590.0,600.0
2737,582.0,589.0
2738,579.0,588.0
2739,583.0,592.0
2740,587.0,597.0
2741,590.0,599.0
2742,593.0,601.0
2743,593.0,599.0
2744,591.0,596.0
2745,587.0,590.0
2746,587.0,582.0
2747,591.0,584.0
2748,594.0,590.0
2749,596.0,596.0
2750,597.0,599.0
2751,595.0,598.0
2752,592.0,590.0
2753,589.0,578.0
2754,580.0,577.0
2755,581.0,581.0
2756,585.0,585.0
2757,589.0,586.0
2758,592.0,585.0
2759,593.0,584.0
2760,593.0,580.0
2761,591.0,576.0
2762,585.0,565.0
2763,588.0,561.0
2764,591.0,561.0
2765,595.0,560.0
2766,596.0,552.0
2767,596.0,547.0
2768,594.0,546.0
2769,591.0,544.0
2770,586.0,540.0
2771,579.0,535.0
2772,582.0,530.0
2773,586.0,524.0
2774,589.0,518.0
2775,592.0,510.0
2776,593.0,503.0
2777,591.0,495.0
2778,590.0,494.0
2779,586.0,502.0
2780,589.0,509.0
2781,593.0,517.0
2782,595.0,524.0
2783,596.0,531.0
2784,596.0,537.0
2785,593.0,540.0
2786,590.0,535.0
2787,582.0,530.0
2788,580.0,537.0
2789,583.0,543.0
2790,587.0,547.0
2791,590.0,551.0
2792,593.0,551.0
2793,593.0,551.0
2794,592.0,548.0
2795,586.0,549.0
2796,588.0,556.0
2797,591.0,561.0
2798,595.0,567.0
2799,596.0,573.0
2800,597.0,575.0
2801,596.0,576.0
2802,593.0,575.0
2803,588.0,575.0
2804,579.0,581.0
2805,581.0,586.0
2806,586.0,592.0
2807,589.0,595.0
2808,592.0,596.0
2809,594.0,595.0
2810,593.0,592.0
2811,591.0,597.0
2812,585.0,603.0
2813,590.0,607.0
2814,593.0,611.0
2815,595.0,611.0
2816,597.0,610.0
2817,596.0,608.0
2818,595.0,604.0
2819,591.0,599.0
2820,585.0,595.0
2821,579.0,600.0
2822,582.0,605.0
2823,586.0,611.0
2824,590.0,616.0
2825,593.0,619.0
2826,594.0,621.0
2827,592.0,618.0
2828,589.0,623.0
2829,587.0,628.0
2830,590.0,631.0
2831,593.0,633.0
2832,596.0,633.0
2833,597.0,630.0
2834,596.0,626.0
2835,593.0,621.0
2836,590.0,625.0
2837,582.0,630.0
2838,580.0,634.0
2839,584.0,638.0
2840,588.0,641.0
2841,591.0,641.0
2842,593.0,640.0
2843,593.0,637.0
2844,591.0,630.0
2845,586.0,630.0
2846,588.0,635.0
2847,591.0,639.0
2848,595.0,643.0
2849,597.0,645.0
2850,597.0,645.0
2851,595.0,642.0
2852,592.0,646.0
2853,588.0,650.0
2854,579.0,653.0
2855,582.0,653.0
2856,585.0,651.0
2857,589.0,649.0
2858,592.0,644.0
2859,593.0,639.0
2860,592.0,632.0
2861,591.0,623.0
2862,585.0,627.0
2863,589.0,631.0
2864,592.0,636.0
2865,596.0,641.0
2866,597.0,639.0
2867,597.0,639.0
2868,593.0,639.0
2869,590.0,638.0
2870,585.0,635.0
2871,579.0,632.0
2872,582.0,626.0
2873,586.0,620.0
2874,590.0,614.0
2875,592.0,606.0
2876,592.0,597.0
2877,592.0,589.0
2878,589.0,580.0
2879,586.0,569.0
2880,589.0,566.0
2881,593.0,560.0
2882,595.0,549.0
2883,596.0,542.0
2884,595.0,535.0
2885,593.0,527.0
2886,588.0,519.0
2887,580.0,510.0
2888,580.0,502.0
2889,584.0,493.0
2890,588.0,484.0
2891,591.0,475.0
2892,593.0,466.0
2893,593.0,457.0
2894,591.0,448.0
2895,585.0,442.0
2896,587.0,446.0
2897,591.0,448.0
2898,594.0,446.0
2899,596.0,438.0
2900,596.0,434.0
2901,594.0,430.0
2902,592.0,424.0
2903,587.0,419.0
2904,579.0,413.0
2905,581.0,406.0
2906,585.0,400.0
2907,589.0,393.0
2908,592.0,386.0
2909,592.0,379.0
2910,592.0,373.0
2911,590.0,365.0
2912,585.0,363.0
2913,588.0,366.0
2914,591.0,362.0
2915,595.0,354.0
2916,596.0,350.0
2917,595.0,346.0
2918,593.0,340.0
2919,590.0,335.0
2920,584.0,330.0
2921,578.0,325.0
2922,583.0,319.0
2923,586.0,314.0
2924,590.0,308.0
2925,591.0,301.0
2926,593.0,296.0
2927,591.0,290.0
2928,588.0,285.0
2929,585.0,279.0
2930,589.0,274.0
2931,593.0,269.0
2932,595.0,263.0
2933,596.0,258.0
2934,595.0,253.0
2935,592.0,248.0
2936,588.0,242.0
2937,580.0,237.0
2938,580.0,232.0
2939,584.0,227.0
2940,588.0,222.0
2941,591.0,217.0
2942,593.0,213.0
2943,593.0,208.0
2944,591.0,204.0
2945,585.0,199.0
2946,588.0,194.0
2947,591.0,190.0
2948,594.0,186.0
2949,597.0,181.0
2950,596.0,177.0
2951,594.0,173.0
2952,591.0,170.0
2953,587.0,167.0
2954,578.0,162.0
2955,581.0,158.0
2956,585.0,155.0
2957,589.0,152.0
2958,592.0,147.0
2959,593.0,145.0
2960,592.0,142.0
2961,590.0,138.0
2962,585.0,136.0
2963,588.0,132.0
2964,592.0,129.0
2965,595.0,127.0
2966,596.0,124.0
2967,596.0,121.0
2968,593.0,118.0
2969,590.0,116.0
2970,584.0,113.0
2971,579.0,111.0
2972,583.0,108.0
2973,586.0,106.0
2974,590.0,103.0
2975,593.0,101.0
2976,593.0,98.0
2977,592.0,96.0
2978,588.0,94.0
2979,587.0,92.0
2980,590.0,90.0
2981,594.0,88.0
2982,596.0,86.0
2983,597.0,84.0
2984,595.0,82.0
2985,593.0,79.0
2986,590.0,79.0
2987,580.0,77.0
2988,580.0,75.0
2989,584.0,74.0
2990,587.0,72.0
2991,591.0,71.0
2992,593.0,69.0
2993,593.0,68.0
2994,591.0,65.0
2995,584.0,64.0
2996,588.0,63.0
2997,591.0,61.0
2998,595.0,59.0
2999,597.0,58.0
3000,596.0,57.0
3001,595.0,55.0
3002,591.0,54.0
3003,586.0,53.0
3004,578.0,53.0
3005,582.0,50.0
3006,585.0,50.0
3007,588.0,48.0
3008,592.0,47.0
3009,593.0,46.0
3010,592.0,46.0
3011,589.0,44.0
3012,585.0,43.0
3013,589.0,42.0
3014,592.0,41.0
3015,595.0,40.0
3016,596.0,39.0
3017,595.0,38.0
3018,594.0,38.0
3019,590.0,37.0
3020,584.0,36.0
3021,579.0,35.0
3022,583.0,34.0
3023,587.0,34.0
3024,590.0,34.0
3025,593.0,32.0
3026,593.0,31.0
3027,592.0,31.0
3028,588.0,29.0
3029,587.0,29.0
3030,590.0,28.0
3031,594.0,29.0
3032,596.0,28.0
3033,596.0,26.0
3034,595.0,26.0
3035,592.0,25.0
3036,589.0,25.0
3037,581.0,25.0
3038,580.0,23.0
3039,585.0,23.0
3040,587.0,23.0
3041,592.0,22.0
3042,593.0,22.0
3043,593.0,21.0
3044,590.0,21.0
3045,584.0,20.0
3046,587.0,20.0
3047,591.0,20.0
3048,594.0,19.0
3049,596.0,18.0
3050,596.0,18.0
3051,595.0,18.0
3052,592.0,16.0
3053,587.0,16.0
3054,579.0,17.0
3055,583.0,17.0
3056,586.0,15.0
3057,590.0,15.0
3058,593.0,15.0
3059,594.0,15.0
3060,592.0,15.0
3061,590.0,14.0
3062,586.0,14.0
3063,589.0,13.0
3064,592.0,13.0
3065,595.0,13.0
3066,596.0,13.0
3067,595.0,12.0
3068,594.0,12.0
3069,590.0,12.0
3070,583.0,12.0
3071,580.0,11.0
3072,584.0,12.0
3073,587.0,13.0
3074,591.0,30.0
3075,594.0,49.0
3076,594.0,67.0
3077,592.0,72.0
3078,588.0,79.0
3079,587.0,85.0
3080,590.0,88.0
3081,594.0,92.0
3082,597.0,95.0
3083,597.0,96.0
3084,596.0,98.0
3085,594.0,99.0
3086,590.0,105.0
3087,580.0,110.0
3088,581.0,112.0
3089,585.0,115.0
3090,589.0,118.0
3091,592.0,117.0
3092,594.0,120.0
3093,593.0,122.0
3094,592.0,124.0
3095,585.0,125.0
3096,588.0,126.0
3097,591.0,126.0
3098,595.0,126.0
3099,597.0,127.0
3100,597.0,125.0
3101,595.0,123.0
3102,592.0,125.0
3103,587.0,136.0
3104,580.0,141.0
3105,583.0,152.0
3106,587.0,158.0
3107,591.0,162.0
3108,594.0,165.0
3109,595.0,167.0
3110,593.0,169.0
3111,591.0,170.0
3112,586.0,169.0
3113,590.0,168.0
3114,593.0,167.0
3115,597.0,167.0
3116,597.0,165.0
3117,596.0,163.0
3118,594.0,161.0
3119,590.0,159.0
3120,583.0,157.0
3121,582.0,155.0
3122,585.0,152.0
3123,589.0,150.0
3124,592.0,147.0
3125,594.0,145.0
3126,594.0,142.0
3127,592.0,140.0
3128,589.0,136.0
3129,588.0,134.0
3130,590.0,130.0
3131,595.0,128.0
3132,598.0,126.0
3133,598.0,123.0
3134,597.0,120.0
3135,593.0,118.0
3136,590.0,116.0
3137,582.0,113.0
3138,585.0,111.0
3139,588.0,108.0
3140,592.0,105.0
3141,594.0,104.0
3142,595.0,101.0
3143,594.0,99.0
3144,592.0,97.0
3145,586.0,95.0
3146,588.0,92.0
3147,593.0,90.0
3148,597.0,88.0
3149,597.0,86.0
3150,598.0,83.0
3151,596.0,83.0
3152,592.0,80.0
3153,589.0,79.0
3154,581.0,76.0
3155,586.0,75.0
3156,590.0,73.0
3157,592.0,72.0
3158,595.0,70.0
3159,596.0,68.0
3160,594.0,67.0
3161,591.0,66.0
3162,587.0,63.0
3163,590.0,62.0
3164,593.0,61.0
3165,597.0,60.0
3166,597.0,58.0
3167,597.0,57.0
3168,595.0,56.0
3169,592.0,55.0
3170,584.0,53.0
3171,584.0,52.0
3172,588.0,51.0
3173,591.0,49.0
3174,594.0,49.0
3175,595.0,48.0
3176,595.0,46.0
3177,593.0,46.0
3178,590.0,45.0
3179,586.0,43.0
3180,590.0,42.0
3181,593.0,41.0
3182,596.0,41.0
3183,597.0,39.0
3184,597.0,39.0
3185,594.0,38.0
3186,591.0,37.0
3187,583.0,37.0
3188,588.0,36.0
3189,591.0,35.0
3190,595.0,33.0
3191,596.0,34.0
3192,597.0,32.0
3193,595.0,32.0
3194,593.0,31.0
3195,587.0,30.0
3196,583.0,28.0
3197,587.0,29.0
3198,590.0,28.0
3199,594.0,27.0
3200,595.0,27.0
3201,595.0,26.0
3202,593.0,26.0
3203,584.0,25.0
3204,588.0,24.0
3205,592.0,25.0
3206,594.0,23.0
3207,595.0,23.0
3208,593.0,22.0
3209,591.0,21.0
3210,588.0,21.0
3211,582.0,21.0
3212,576.0,21.0
3213,570.0,20.0
3214,563.0,19.0
3215,555.0,19.0
3216,546.0,19.0
3217,538.0,18.0
3218,529.0,17.0
3219,520.0,18.0
3220,510.0,32.0
3221,501.0,50.0
3222,493.0,60.0
3223,483.0,67.0
3224,473.0,80.0
3225,464.0,89.0
3226,455.0,93.0
3227,446.0,95.0
3228,436.0,104.0
3229,427.0,111.0
3230,419.0,117.0
3231,410.0,122.0
3232,401.0,125.0
3233,392.0,128.0
3234,383.0,130.0
3235,375.0,141.0
3236,367.0,157.0
3237,359.0,172.0
3238,351.0,187.0
3239,344.0,202.0
3240,336.0,216.0
3241,329.0,227.0
3242,322.0,236.0
3243,314.0,244.0
3244,307.0,250.0
3245,301.0,254.0
3246,294.0,256.0
3247,287.0,258.0
3248,281.0,258.0
3249,275.0,259.0
3250,269.0,258.0
3251,262.0,256.0
3252,257.0,254.0
3253,251.0,252.0
3254,245.0,249.0
3255,239.0,246.0
3256,236.0,243.0
3257,232.0,239.0
3258,241.0,245.0
3259,252.0,258.0
3260,264.0,272.0
3261,274.0,285.0
3262,285.0,298.0
3263,295.0,309.0
3264,305.0,321.0
3265,312.0,329.0
3266,318.0,334.0
3267,321.0,343.0
3268,323.0,355.0
3269,325.0,365.0
3270,324.0,373.0
3271,324.0,380.0
3272,322.0,383.0
3273,319.0,385.0
3274,317.0,386.0
3275,314.0,386.0
3276,310.0,384.0
3277,306.0,382.0
3278,301.0,378.0
3279,297.0,375.0
3280,292.0,370.0
3281,287.0,365.0
3282,282.0,362.0
3283,277.0,356.0
3284,272.0,350.0
3285,268.0,344.0
3286,262.0,339.0
3287,256.0,333.0
3288,252.0,327.0
3289,246.0,321.0
3290,242.0,315.0
3291,236.0,309.0
3292,232.0,303.0
3293,226.0,297.0
3294,222.0,291.0
3295,217.0,285.0
3296,213.0,280.0
3297,208.0,273.0
3298,204.0,268.0
3299,200.0,261.0
3300,195.0,257.0
3301,190.0,250.0
3302,186.0,244.0
3303,182.0,240.0
3304,178.0,234.0
3305,174.0,229.0
3306,170.0,224.0
3307,166.0,219.0
3308,163.0,214.0
3309,159.0,210.0
3310,156.0,205.0
3311,152.0,200.0
3312,149.0,196.0
3313,146.0,191.0
3314,142.0,188.0
3315,139.0,183.0
3316,135.0,179.0
3317,132.0,175.0
3318,129.0,171.0
3319,127.0,167.0
3320,124.0,164.0
3321,121.0,160.0
3322,118.0,157.0
3323,115.0,153.0
3324,113.0,149.0
3325,111.0,146.0
3326,108.0,143.0
3327,106.0,139.0
3328,103.0,137.0
3329,101.0,134.0
3330,98.0,130.0
3331,97.0,127.0
3332,95.0,125.0
3333,93.0,122.0
3334,90.0,119.0
3335,87.0,116.0
3336,86.0,114.0
3337,84.0,111.0
3338,82.0,108.0
3339,80.0,106.0
3340,78.0,104.0
3341,77.0,101.0
3342,77.0,100.0
3343,79.0,96.0
3344,78.0,94.0
3345,77.0,93.0
3346,77.0,90.0
3347,75.0,88.0
3348,74.0,87.0
3349,72.0,85.0
3350,71.0,83.0
3351,69.0,81.0
3352,68.0,79.0
3353,67.0,78.0
3354,65.0,76.0
3355,77.0,74.0
3356,91.0,72.0
3357,106.0,70.0
3358,121.0,68.0
3359,135.0,66.0
3360,149.0,66.0
3361,162.0,64.0
3362,167.0,63.0
3363,172.0,61.0
3364,176.0,60.0
3365,182.0,58.0
3366,179.0,57.0
3367,182.0,56.0
3368,194.0,55.0
3369,205.0,53.0
3370,213.0,53.0
3371,219.0,51.0
3372,225.0,50.0
3373,228.0,49.0
3374,231.0,47.0
3375,232.0,47.0
3376,232.0,45.0
3377,229.0,44.0
3378,232.0,44.0
3379,243.0,43.0
3380,255.0,41.0
3381,266.0,41.0
3382,277.0,40.0
3383,286.0,40.0
3384,294.0,38.0
3385,295.0,37.0
3386,294.0,36.0
3387,297.0,36.0
3388,296.0,34.0
3389,301.0,34.0
3390,298.0,33.0
3391,291.0,33.0
3392,286.0,32.0
3393,287.0,31.0
3394,290.0,31.0
3395,291.0,29.0
3396,291.0,28.0
3397,290.0,28.0
3398,289.0,27.0
3399,287.0,27.0
3400,285.0,27.0
3401,282.0,26.0
3402,279.0,25.0
3403,275.0,24.0
3404,271.0,24.0
3405,267.0,24.0
3406,264.0,23.0
3407,259.0,23.0
3408,254.0,21.0
3409,250.0,22.0
3410,245.0,21.0
3411,241.0,20.0
3412,236.0,20.0
3413,232.0,20.0
3414,227.0,18.0
3415,223.0,18.0
3416,218.0,19.0
3417,213.0,18.0
3418,209.0,19.0
3419,204.0,17.0
3420,200.0,16.0
3421,196.0,16.0
3422,192.0,15.0
3423,189.0,16.0
3424,183.0,15.0
3425,179.0,15.0
3426,175.0,15.0
3427,171.0,15.0
3428,167.0,14.0
3429,164.0,13.0
3430,160.0,13.0
3431,157.0,13.0
3432,153.0,13.0
3433,150.0,13.0
3434,147.0,12.0
3435,143.0,11.0
3436,140.0,11.0
3437,136.0,11.0
3438,134.0,11.0
3439,131.0,11.0
3440,128.0,11.0
3441,126.0,10.0
3442,122.0,10.0
3443,120.0,11.0
3444,116.0,10.0
3445,115.0,10.0
3446,112.0,9.0
3447,109.0,8.0
3448,107.0,9.0
3449,106.0,9.0
3450,119.0,8.0
3451,134.0,9.0
3452,148.0,8.0
3453,161.0,8.0
3454,174.0,8.0
3455,187.0,8.0
3456,199.0,8.0
3457,208.0,8.0
3458,216.0,8.0
3459,222.0,7.0
3460,227.0,7.0
3461,230.0,8.0
3462,225.0,7.0
3463,222.0,6.0
3464,222.0,8.0
3465,224.0,8.0
3466,226.0,6.0
3467,226.0,6.0
3468,226.0,6.0
3469,224.0,6.0
3470,222.0,5.0
3471,222.0,6.0
3472,218.0,5.0
3473,217.0,5.0
3474,214.0,5.0
3475,211.0,5.0
3476,207.0,4.0
3477,204.0,4.0
3478,202.0,5.0
3479,202.0,5.0
3480,200.0,4.0
3481,197.0,4.0
3482,195.0,4.0
3483,192.0,4.0
3484,189.0,3.0
3485,193.0,5.0
3486,205.0,4.0
3487,217.0,4.0
3488,229.0,4.0
3489,241.0,4.0
3490,252.0,3.0
3491,262.0,3.0
3492,272.0,2.0
3493,279.0,3.0
3494,285.0,2.0
3495,287.0,2.0
3496,290.0,3.0
3497,291.0,3.0
3498,291.0,3.0
3499,291.0,3.0
3500,290.0,3.0
3501,287.0,6.0
3502,285.0,25.0
3503,282.0,44.0
3504,279.0,61.0
3505,275.0,79.0
3506,271.0,97.0
3507,267.0,112.0
3508,263.0,116.0
3509,259.0,114.0
3510,254.0,112.0
3511,250.0,113.0
3512,246.0,121.0
3513,241.0,135.0
3514,235.0,147.0
3515,231.0,157.0
3516,227.0,164.0
3517,222.0,169.0
3518,217.0,173.0
3519,213.0,177.0
3520,209.0,180.0
3521,204.0,182.0
3522,201.0,184.0
3523,195.0,184.0
3524,196.0,184.0
3525,208.0,184.0
3526,220.0,183.0
3527,227.0,181.0
3528,226.0,179.0
3529,228.0,178.0
3530,229.0,176.0
3531,229.0,173.0
3532,229.0,170.0
3533,228.0,167.0
3534,226.0,165.0
3535,223.0,162.0
3536,222.0,159.0
3537,232.0,157.0
3538,242.0,154.0
3539,254.0,151.0
3540,265.0,148.0
3541,276.0,145.0
3542,286.0,142.0
3543,294.0,139.0
3544,301.0,136.0
3545,305.0,133.0
3546,302.0,130.0
3547,306.0,129.0
3548,309.0,125.0
3549,313.0,122.0
3550,315.0,120.0
3551,316.0,117.0
3552,317.0,115.0
3553,313.0,112.0
3554,310.0,110.0
3555,308.0,108.0
3556,307.0,105.0
3557,304.0,103.0
3558,301.0,100.0
3559,297.0,97.0
3560,293.0,96.0
3561,289.0,94.0
3562,290.0,91.0
3563,300.0,90.0
3564,310.0,87.0
3565,320.0,85.0
3566,329.0,84.0
3567,338.0,82.0
3568,343.0,79.0
3569,337.0,78.0
3570,337.0,76.0
3571,345.0,75.0
3572,351.0,73.0
3573,355.0,71.0
3574,358.0,69.0
3575,361.0,68.0
3576,361.0,66.0
3577,360.0,65.0
3578,357.0,64.0
3579,356.0,62.0
3580,364.0,61.0
3581,373.0,59.0
3582,383.0,58.0
3583,390.0,56.0
3584,397.0,55.0
3585,398.0,53.0
3586,392.0,52.0
3587,393.0,52.0
3588,399.0,51.0
3589,407.0,49.0
3590,412.0,48.0
3591,414.0,47.0
3592,417.0,47.0
3593,415.0,45.0
3594,416.0,45.0
3595,409.0,44.0
3596,413.0,42.0
3597,421.0,41.0
3598,428.0,39.0
3599,435.0,39.0
3600,441.0,39.0
3601,445.0,37.0
3602,446.0,37.0
3603,438.0,35.0
3604,436.0,35.0
3605,442.0,35.0
3606,449.0,33.0
3607,455.0,33.0
3608,458.0,32.0
3609,460.0,31.0
3610,460.0,30.0
3611,458.0,30.0
3612,453.0,30.0
3613,459.0,29.0
3614,465.0,27.0
3615,472.0,27.0
3616,477.0,27.0
3617,481.0,26.0
3618,482.0,26.0
3619,478.0,25.0
3620,470.0,24.0
3621,470.0,24.0
3622,476.0,23.0
3623,482.0,23.0
3624,486.0,22.0
3625,489.0,22.0
3626,490.0,22.0
3627,490.0,20.0
3628,485.0,21.0
3629,482.0,19.0
3630,488.0,19.0
3631,494.0,20.0
3632,499.0,19.0
3633,504.0,18.0
3634,506.0,18.0
3635,505.0,18.0
3636,499.0,17.0
3637,493.0,17.0
3638,494.0,16.0
3639,499.0,15.0
3640,504.0,14.0
3641,508.0,15.0
3642,511.0,15.0
3643,510.0,14.0
3644,510.0,14.0
3645,502.0,14.0
3646,502.0,13.0
3647,508.0,13.0
3648,513.0,13.0
3649,518.0,13.0
3650,521.0,12.0
3651,521.0,17.0
3652,514.0,26.0
3653,505.0,34.0
3654,502.0,40.0
3655,507.0,42.0
3656,512.0,43.0
3657,516.0,45.0
3658,518.0,48.0
3659,518.0,50.0
3660,516.0,56.0
3661,510.0,71.0
3662,515.0,89.0
3663,520.0,105.0
3664,525.0,113.0
3665,525.0,121.0
3666,528.0,126.0
3667,528.0,131.0
3668,528.0,135.0
3669,526.0,138.0
3670,523.0,140.0
3671,518.0,141.0
3672,513.0,142.0
3673,507.0,142.0
3674,500.0,142.0
3675,494.0,141.0
3676,484.0,140.0
3677,480.0,139.0
3678,485.0,138.0
3679,491.0,136.0
3680,497.0,134.0
3681,502.0,132.0
3682,508.0,130.0
3683,512.0,129.0
3684,513.0,127.0
3685,514.0,124.0
3686,512.0,122.0
3687,506.0,120.0
3688,495.0,118.0
3689,491.0,114.0
3690,494.0,113.0
3691,500.0,110.0
3692,506.0,109.0
3693,510.0,106.0
3694,510.0,104.0
3695,503.0,102.0
3696,507.0,100.0
3697,513.0,97.0
3698,515.0,95.0
3699,517.0,93.0
3700,518.0,92.0
3701,516.0,88.0
3702,513.0,87.0
3703,510.0,86.0
3704,505.0,84.0
3705,500.0,82.0
3706,494.0,80.0
3707,484.0,78.0
3708,477.0,76.0
3709,472.0,75.0
3710,466.0,73.0
3711,458.0,71.0
3712,455.0,69.0
3713,450.0,67.0
3714,446.0,66.0
3715,440.0,65.0
3716,434.0,64.0
3717,428.0,62.0
3718,421.0,60.0
3719,414.0,59.0
3720,407.0,57.0
3721,400.0,56.0
3722,394.0,55.0
3723,397.0,54.0
3724,406.0,53.0
3725,412.0,52.0
3726,420.0,51.0
3727,427.0,49.0
3728,432.0,49.0
3729,427.0,47.0
3730,428.0,46.0
3731,434.0,45.0
3732,437.0,44.0
3733,438.0,43.0
3734,437.0,42.0
3735,436.0,41.0
3736,434.0,40.0
3737,430.0,39.0
3738,422.0,38.0
3739,419.0,37.0
3740,426.0,37.0
3741,433.0,36.0
3742,440.0,35.0
3743,447.0,34.0
3744,453.0,33.0
3745,450.0,33.0
3746,448.0,32.0
3747,454.0,31.0
3748,459.0,31.0
3749,463.0,38.0
3750,464.0,55.0
3751,464.0,73.0
3752,463.0,91.0
3753,460.0,107.0
3754,453.0,124.0
3755,445.0,140.0
3756,446.0,156.0
3757,454.0,170.0
3758,460.0,180.0
3759,467.0,188.0
3760,471.0,196.0
3761,473.0,200.0
3762,466.0,204.0
3763,471.0,208.0
3764,477.0,209.0
3765,481.0,211.0
3766,483.0,211.0
3767,483.0,210.0
3768,482.0,209.0
3769,480.0,208.0
3770,476.0,206.0
3771,466.0,202.0
3772,461.0,199.0
3773,464.0,200.0
3774,471.0,201.0
3775,477.0,201.0
3776,483.0,199.0
3777,488.0,195.0
3778,484.0,194.0
3779,481.0,194.0
3780,487.0,194.0
3781,492.0,193.0
3782,494.0,191.0
3783,496.0,190.0
3784,494.0,188.0
3785,492.0,185.0
3786,490.0,183.0
3787,483.0,180.0
3788,473.0,177.0
3789,469.0,175.0
3790,475.0,174.0
3791,482.0,176.0
3792,488.0,175.0
3793,492.0,171.0
3794,496.0,169.0
3795,489.0,168.0
3796,490.0,166.0
3797,495.0,165.0
3798,500.0,162.0
3799,501.0,161.0
3800,501.0,159.0
3801,500.0,157.0
3802,498.0,154.0
3803,495.0,151.0
3804,486.0,149.0
3805,478.0,146.0
3806,477.0,146.0
3807,483.0,146.0
3808,489.0,148.0
3809,495.0,148.0
3810,500.0,145.0
3811,500.0,143.0
3812,493.0,142.0
3813,498.0,142.0
3814,503.0,140.0
3815,505.0,138.0
3816,506.0,136.0
3817,506.0,134.0
3818,503.0,132.0
3819,500.0,131.0
3820,496.0,129.0
3821,486.0,126.0
3822,479.0,124.0
3823,481.0,126.0
3824,487.0,127.0
3825,493.0,130.0
3826,499.0,130.0
3827,503.0,127.0
3828,499.0,127.0
3829,495.0,127.0
3830,501.0,126.0
3831,505.0,125.0
3832,507.0,124.0
3833,507.0,122.0
3834,506.0,122.0
3835,504.0,121.0
3836,501.0,118.0
3837,494.0,117.0
3838,484.0,115.0
3839,479.0,113.0
3840,483.0,115.0
3841,489.0,117.0
3842,495.0,118.0
3843,500.0,117.0
3844,504.0,115.0
3845,497.0,115.0
3846,496.0,115.0
3847,502.0,114.0
3848,506.0,113.0
3849,506.0,112.0
3850,506.0,111.0
3851,504.0,110.0
3852,501.0,108.0
3853,498.0,107.0
3854,490.0,105.0
3855,481.0,104.0
3856,479.0,103.0
3857,484.0,104.0
3858,490.0,105.0
3859,496.0,105.0
3860,502.0,102.0
3861,502.0,101.0
3862,494.0,100.0
3863,498.0,100.0
3864,503.0,100.0
3865,505.0,98.0
3866,506.0,98.0
3867,505.0,95.0
3868,503.0,94.0
3869,500.0,94.0
3870,495.0,91.0
3871,487.0,90.0
3872,479.0,88.0
3873,478.0,86.0
3874,484.0,87.0
3875,490.0,87.0
3876,496.0,85.0
3877,500.0,84.0
3878,497.0,83.0
3879,492.0,82.0
3880,496.0,81.0
3881,500.0,80.0
3882,501.0,79.0
3883,501.0,78.0
3884,500.0,76.0
3885,497.0,75.0
3886,494.0,73.0
3887,489.0,72.0
3888,480.0,71.0
3889,473.0,69.0
3890,474.0,67.0
3891,480.0,67.0
3892,485.0,66.0
3893,492.0,64.0
3894,496.0,63.0
3895,489.0,61.0
3896,486.0,61.0
3897,490.0,60.0
3898,493.0,58.0
3899,494.0,57.0
3900,494.0,56.0
3901,492.0,55.0
3902,489.0,53.0
3903,485.0,52.0
3904,479.0,52.0
3905,470.0,49.0
3906,465.0,49.0
3907,467.0,48.0
3908,473.0,47.0
3909,480.0,46.0
3910,486.0,45.0
3911,488.0,45.0
3912,492.0,60.0
3913,495.0,73.0
3914,495.0,80.0
3915,493.0,84.0
3916,487.0,85.0
3917,477.0,84.0
3918,469.0,83.0
3919,463.0,80.0
3920,455.0,79.0
3921,446.0,77.0
3922,441.0,78.0
3923,440.0,78.0
3924,438.0,80.0
3925,435.0,80.0
3926,430.0,79.0
3927,426.0,78.0
3928,420.0,79.0
3929,422.0,83.0
3930,429.0,89.0
3931,436.0,91.0
3932,443.0,94.0
3933,450.0,96.0
3934,456.0,98.0
3935,458.0,99.0
3936,457.0,100.0
3937,451.0,100.0
3938,442.0,101.0
3939,438.0,99.0
3940,442.0,97.0
3941,449.0,97.0
3942,454.0,95.0
3943,458.0,94.0
3944,460.0,93.0
3945,454.0,93.0
3946,451.0,93.0
3947,456.0,91.0
3948,462.0,90.0
3949,468.0,90.0
3950,472.0,89.0
3951,474.0,89.0
3952,473.0,87.0
3953,471.0,85.0
3954,463.0,83.0
3955,455.0,83.0
3956,451.0,81.0
3957,456.0,80.0
3958,462.0,81.0
3959,469.0,81.0
3960,474.0,79.0
3961,475.0,78.0
3962,468.0,78.0
3963,467.0,77.0
3964,473.0,77.0
3965,479.0,75.0
3966,481.0,75.0
3967,483.0,73.0
3968,482.0,73.0
3969,481.0,71.0
3970,477.0,69.0
3971,469.0,68.0
3972,464.0,68.0
3973,465.0,69.0
3974,472.0,70.0
3975,478.0,71.0
3976,484.0,70.0
3977,488.0,70.0
3978,487.0,70.0
3979,480.0,69.0
3980,482.0,70.0
3981,487.0,70.0
3982,492.0,68.0
3983,494.0,68.0
3984,495.0,67.0
3985,493.0,67.0
3986,491.0,66.0
3987,488.0,65.0
3988,482.0,63.0
3989,473.0,62.0
3990,470.0,64.0
3991,472.0,65.0
3992,478.0,66.0
3993,483.0,68.0
3994,489.0,67.0
3995,486.0,66.0
3996,479.0,66.0
3997,480.0,66.0
3998,484.0,67.0
3999,486.0,67.0
4000,487.0,66.0
4001,484.0,66.0
4002,482.0,65.0
4003,479.0,64.0
4004,473.0,62.0
4005,464.0,64.0
4006,459.0,66.0
4007,461.0,69.0
4008,467.0,73.0
4009,473.0,74.0
4010,480.0,74.0
4011,483.0,73.0
4012,476.0,73.0
4013,473.0,74.0
4014,478.0,75.0
4015,481.0,76.0
4016,482.0,77.0
4017,482.0,77.0
4018,481.0,75.0
4019,479.0,77.0
4020,476.0,80.0
4021,469.0,83.0
4022,460.0,89.0
4023,456.0,96.0
4024,460.0,103.0
4025,466.0,110.0
4026,472.0,114.0
4027,478.0,118.0
4028,477.0,121.0
4029,469.0,127.0
4030,470.0,139.0
4031,474.0,154.0
4032,476.0,170.0
4033,477.0,184.0
4034,476.0,196.0
4035,475.0,206.0
4036,471.0,213.0
4037,466.0,219.0
4038,460.0,224.0
4039,451.0,227.0
4040,448.0,229.0
4041,449.0,230.0
4042,453.0,230.0
4043,457.0,229.0
4044,459.0,237.0
4045,453.0,251.0
4046,449.0,264.0
4047,451.0,272.0
4048,452.0,272.0
4049,452.0,279.0
4050,450.0,283.0
4051,448.0,287.0
4052,445.0,289.0
4053,441.0,289.0
4054,436.0,290.0
4055,428.0,288.0
4056,421.0,288.0
4057,418.0,284.0
4058,420.0,282.0
4059,424.0,279.0
4060,428.0,276.0
4061,431.0,273.0
4062,426.0,269.0
4063,420.0,265.0
4064,421.0,259.0
4065,422.0,256.0
4066,422.0,252.0
4067,421.0,247.0
4068,418.0,242.0
4069,415.0,238.0
4070,411.0,233.0
4071,407.0,229.0
4072,402.0,224.0
4073,394.0,219.0
4074,390.0,215.0
4075,389.0,210.0
4076,390.0,206.0
4077,391.0,202.0
4078,389.0,197.0
4079,382.0,193.0
4080,379.0,189.0
4081,379.0,185.0
4082,378.0,180.0
4083,376.0,177.0
4084,373.0,174.0
4085,370.0,169.0
4086,365.0,165.0
4087,360.0,162.0
4088,356.0,158.0
4089,350.0,155.0
4090,351.0,152.0
4091,360.0,149.0
4092,369.0,163.0
4093,378.0,178.0
4094,386.0,193.0
4095,394.0,209.0
4096,400.0,223.0
4097,402.0,237.0
4098,397.0,250.0
4099,391.0,261.0
4100,391.0,270.0
4101,391.0,276.0
4102,393.0,281.0
4103,392.0,284.0
4104,386.0,287.0
4105,379.0,287.0
4106,375.0,287.0
4107,377.0,286.0
4108,381.0,284.0
4109,386.0,283.0
4110,389.0,281.0
4111,386.0,277.0
4112,381.0,274.0
4113,384.0,270.0
4114,392.0,267.0
4115,399.0,262.0
4116,406.0,258.0
4117,411.0,254.0
4118,414.0,250.0
4119,415.0,245.0
4120,413.0,241.0
4121,408.0,236.0
4122,400.0,232.0
4123,394.0,227.0
4124,390.0,223.0
4125,390.0,218.0
4126,389.0,214.0
4127,388.0,209.0
4128,382.0,204.0
4129,379.0,201.0
4130,380.0,196.0
4131,382.0,191.0
4132,383.0,187.0
4133,383.0,183.0
4134,382.0,180.0
4135,380.0,176.0
4136,376.0,176.0
4137,372.0,183.0
4138,368.0,192.0
4139,361.0,205.0
4140,354.0,218.0
4141,347.0,232.0
4142,341.0,246.0
4143,335.0,257.0
4144,327.0,256.0
4145,321.0,255.0
4146,317.0,263.0
4147,313.0,271.0
4148,307.0,277.0
4149,303.0,281.0
4150,297.0,284.0
4151,293.0,282.0
4152,288.0,292.0
4153,282.0,304.0
4154,277.0,316.0
4155,272.0,327.0
4156,266.0,338.0
4157,261.0,346.0
4158,256.0,351.0
4159,251.0,356.0
4160,248.0,358.0
4161,246.0,360.0
4162,244.0,359.0
4163,239.0,358.0
4164,236.0,356.0
4165,232.0,353.0
4166,228.0,350.0
4167,225.0,347.0
4168,236.0,344.0
4169,248.0,354.0
4170,259.0,366.0
4171,269.0,377.0
4172,280.0,386.0
4173,290.0,397.0
4174,300.0,407.0
4175,306.0,413.0
4176,312.0,418.0
4177,314.0,421.0
4178,310.0,422.0
4179,309.0,422.0
4180,314.0,421.0
4181,321.0,418.0
4182,328.0,416.0
4183,334.0,412.0
4184,339.0,408.0
4185,343.0,403.0
4186,347.0,397.0
4187,347.0,391.0
4188,342.0,385.0
4189,335.0,379.0
4190,329.0,373.0
4191,324.0,366.0
4192,319.0,360.0
4193,314.0,352.0
4194,309.0,347.0
4195,303.0,340.0
4196,302.0,333.0
4197,303.0,327.0
4198,305.0,320.0
4199,306.0,313.0
4200,305.0,307.0
4201,304.0,301.0
4202,302.0,294.0
4203,300.0,291.0
4204,298.0,294.0
4205,295.0,302.0
4206,291.0,314.0
4207,286.0,325.0
4208,283.0,337.0
4209,277.0,349.0
4210,273.0,357.0
4211,269.0,357.0
4212,266.0,352.0
4213,260.0,346.0
4214,257.0,342.0
4215,254.0,339.0
4216,250.0,336.0
4217,246.0,330.0
4218,242.0,331.0
4219,238.0,340.0
4220,234.0,349.0
4221,230.0,356.0
4222,226.0,361.0
4223,221.0,366.0
4224,217.0,367.0
4225,212.0,368.0
4226,208.0,367.0
4227,207.0,365.0
4228,209.0,363.0
4229,209.0,360.0
4230,207.0,357.0
4231,205.0,353.0
4232,202.0,348.0
4233,200.0,343.0
4234,199.0,338.0
4235,195.0,334.0
4236,193.0,328.0
4237,189.0,323.0
4238,187.0,316.0
4239,183.0,311.0
4240,180.0,305.0
4241,177.0,299.0
4242,174.0,294.0
4243,174.0,288.0
4244,177.0,282.0
4245,185.0,277.0
4246,190.0,271.0
4247,193.0,265.0
4248,194.0,259.0
4249,190.0,255.0
4250,191.0,248.0
4251,191.0,243.0
4252,192.0,238.0
4253,193.0,232.0
4254,192.0,228.0
4255,191.0,223.0
4256,189.0,219.0
4257,187.0,213.0
4258,185.0,209.0
4259,182.0,204.0
4260,183.0,199.0
4261,187.0,195.0
4262,194.0,191.0
4263,200.0,186.0
4264,202.0,183.0
4265,201.0,178.0
4266,198.0,174.0
4267,199.0,170.0
4268,202.0,167.0
4269,203.0,163.0
4270,204.0,159.0
4271,203.0,155.0
4272,203.0,152.0
4273,202.0,149.0
4274,201.0,146.0
4275,198.0,143.0
4276,195.0,139.0
4277,198.0,136.0
4278,204.0,132.0
4279,209.0,129.0
4280,214.0,127.0
4281,217.0,124.0
4282,216.0,121.0
4283,213.0,119.0
4284,215.0,116.0
4285,218.0,113.0
4286,220.0,110.0
4287,220.0,109.0
4288,220.0,105.0
4289,220.0,104.0
4290,218.0,101.0
4291,217.0,98.0
4292,213.0,97.0
4293,212.0,95.0
4294,216.0,92.0
4295,223.0,91.0
4296,230.0,87.0
4297,233.0,86.0
4298,234.0,85.0
4299,230.0,82.0
4300,230.0,79.0
4301,235.0,79.0
4302,236.0,77.0
4303,238.0,76.0
4304,238.0,73.0
4305,238.0,72.0
4306,237.0,71.0
4307,235.0,68.0
4308,234.0,67.0
4309,231.0,65.0
4310,228.0,64.0
4311,231.0,63.0
4312,233.0,61.0
4313,236.0,59.0
4314,236.0,58.0
4315,232.0,57.0
4316,230.0,56.0
4317,231.0,54.0
4318,233.0,54.0
4319,232.0,52.0
4320,231.0,51.0
4321,229.0,49.0
4322,228.0,50.0
4323,225.0,47.0
4324,223.0,47.0
4325,220.0,46.0
4326,217.0,44.0
4327,218.0,43.0
4328,224.0,43.0
4329,232.0,41.0
4330,238.0,40.0
4331,241.0,39.0
4332,239.0,39.0
4333,236.0,38.0
4334,240.0,36.0
4335,242.0,36.0
4336,243.0,35.0
4337,243.0,34.0
4338,242.0,34.0
4339,241.0,33.0
4340,239.0,32.0
4341,237.0,32.0
4342,233.0,31.0
4343,234.0,30.0
4344,241.0,29.0
4345,252.0,29.0
4346,263.0,28.0
4347,273.0,26.0
4348,280.0,27.0
4349,282.0,25.0
4350,277.0,26.0
4351,281.0,26.0
4352,287.0,24.0
4353,292.0,24.0
4354,295.0,23.0
4355,297.0,23.0
4356,297.0,22.0
4357,297.0,21.0
4358,295.0,21.0
4359,290.0,20.0
4360,290.0,19.0
4361,296.0,19.0
4362,303.0,19.0
4363,310.0,19.0
4364,315.0,18.0
4365,315.0,18.0
4366,310.0,17.0
4367,311.0,17.0
4368,317.0,17.0
4369,320.0,16.0
4370,323.0,16.0
4371,324.0,16.0
4372,324.0,16.0
4373,323.0,15.0
4374,322.0,15.0
4375,319.0,15.0
4376,314.0,15.0
4377,314.0,14.0
4378,319.0,14.0
4379,326.0,13.0
4380,331.0,13.0
4381,332.0,13.0
4382,329.0,12.0
4383,324.0,13.0
4384,326.0,12.0
4385,329.0,12.0
4386,332.0,11.0
4387,332.0,11.0
4388,331.0,10.0
4389,330.0,11.0
4390,328.0,10.0
4391,326.0,10.0
4392,320.0,10.0
4393,318.0,9.0
4394,321.0,9.0
4395,328.0,9.0
4396,335.0,9.0
4397,341.0,8.0
4398,343.0,8.0
4399,339.0,9.0
4400,335.0,8.0
4401,339.0,8.0
4402,341.0,8.0
4403,344.0,7.0
4404,345.0,7.0
4405,344.0,7.0
4406,343.0,6.0
4407,341.0,7.0
4408,336.0,7.0
4409,331.0,6.0
4410,330.0,6.0
4411,335.0,6.0
4412,342.0,6.0
4413,348.0,6.0
4414,353.0,6.0
4415,354.0,5.0
4416,350.0,5.0
4417,346.0,6.0
4418,350.0,5.0
4419,353.0,5.0
4420,356.0,5.0
4421,357.0,4.0
4422,356.0,5.0
4423,355.0,5.0
4424,352.0,5.0
4425,347.0,4.0
4426,342.0,5.0
4427,345.0,4.0
4428,350.0,5.0
4429,357.0,5.0
4430,364.0,4.0
4431,366.0,4.0
4432,365.0,3.0
4433,359.0,4.0
4434,359.0,3.0
4435,364.0,3.0
4436,367.0,3.0
4437,369.0,5.0
4438,370.0,12.0
4439,369.0,22.0
4440,367.0,35.0
4441,363.0,50.0
4442,356.0,69.0
4443,354.0,85.0
4444,354.0,103.0
4445,358.0,120.0
4446,363.0,137.0
4447,365.0,151.0
4448,364.0,162.0
4449,358.0,171.0
4450,354.0,179.0
4451,357.0,185.0
4452,359.0,190.0
4453,361.0,193.0
4454,360.0,195.0
4455,359.0,195.0
4456,357.0,192.0
4457,354.0,192.0
4458,349.0,190.0
4459,343.0,188.0
4460,342.0,186.0
4461,348.0,187.0
4462,354.0,188.0
4463,362.0,189.0
4464,367.0,189.0
4465,368.0,188.0
4466,366.0,186.0
4467,359.0,185.0
4468,363.0,183.0
4469,368.0,181.0
4470,369.0,179.0
4471,370.0,177.0
4472,370.0,174.0
4473,370.0,171.0
4474,366.0,168.0
4475,360.0,165.0
4476,354.0,162.0
4477,354.0,160.0
4478,357.0,157.0
4479,361.0,154.0
4480,364.0,152.0
4481,364.0,148.0
4482,360.0,144.0
4483,354.0,141.0
4484,354.0,139.0
4485,358.0,136.0
4486,359.0,133.0
4487,360.0,130.0
4488,360.0,127.0
4489,357.0,124.0
4490,355.0,122.0
4491,352.0,119.0
4492,345.0,117.0
4493,339.0,113.0
4494,333.0,111.0
4495,327.0,109.0
4496,322.0,107.0
4497,319.0,104.0
4498,316.0,102.0
4499,313.0,99.0
4500,309.0,97.0
4501,305.0,95.0
4502,300.0,93.0
4503,296.0,91.0
4504,291.0,88.0
4505,286.0,87.0
4506,281.0,86.0
4507,276.0,87.0
4508,271.0,88.0
4509,266.0,87.0
4510,262.0,86.0
4511,260.0,84.0
4512,258.0,84.0
4513,254.0,82.0
4514,249.0,82.0
4515,244.0,80.0
4516,240.0,78.0
4517,238.0,78.0
4518,235.0,76.0
4519,231.0,75.0
4520,228.0,74.0
4521,224.0,73.0
4522,219.0,72.0
4523,216.0,74.0
4524,213.0,75.0
4525,211.0,75.0
4526,212.0,75.0
4527,213.0,74.0
4528,214.0,74.0
4529,213.0,73.0
4530,211.0,72.0
4531,207.0,72.0
4532,205.0,71.0
4533,203.0,70.0
4534,202.0,69.0
4535,201.0,68.0
4536,200.0,68.0
4537,199.0,66.0
4538,196.0,65.0
4539,191.0,64.0
4540,189.0,63.0
4541,186.0,61.0
4542,185.0,60.0
4543,184.0,59.0
4544,185.0,57.0
4545,184.0,56.0
4546,183.0,55.0
4547,181.0,54.0
4548,177.0,53.0
4549,176.0,51.0
4550,175.0,51.0
4551,175.0,55.0
4552,174.0,64.0
4553,174.0,80.0
4554,171.0,97.0
4555,168.0,114.0
4556,166.0,131.0
4557,165.0,147.0
4558,166.0,163.0
4559,168.0,177.0
4560,171.0,189.0
4561,175.0,198.0
4562,178.0,206.0
4563,179.0,212.0
4564,178.0,216.0
4565,174.0,219.0
4566,171.0,222.0
4567,171.0,222.0
4568,171.0,222.0
4569,171.0,223.0
4570,171.0,221.0
4571,170.0,230.0
4572,167.0,244.0
4573,164.0,258.0
4574,160.0,271.0
4575,158.0,284.0
4576,156.0,296.0
4577,153.0,306.0
4578,151.0,313.0
4579,147.0,319.0
4580,147.0,324.0
4581,146.0,326.0
4582,145.0,328.0
4583,145.0,327.0
4584,146.0,327.0
4585,146.0,325.0
4586,147.0,322.0
4587,144.0,320.0
4588,143.0,316.0
4589,145.0,313.0
4590,149.0,309.0
4591,157.0,305.0
4592,166.0,300.0
4593,178.0,295.0
4594,191.0,291.0
4595,203.0,285.0
4596,215.0,280.0
4597,224.0,276.0
4598,230.0,270.0
4599,231.0,265.0
4600,228.0,260.0
4601,226.0,254.0
4602,229.0,250.0
4603,233.0,244.0
4604,236.0,238.0
4605,238.0,234.0
4606,239.0,229.0
4607,238.0,224.0
4608,235.0,219.0
4609,231.0,215.0
4610,226.0,213.0
4611,222.0,212.0
4612,217.0,210.0
4613,215.0,207.0
4614,214.0,202.0
4615,214.0,198.0
4616,214.0,195.0
4617,215.0,193.0
4618,219.0,189.0
4619,222.0,185.0
4620,225.0,182.0
4621,226.0,179.0
4622,226.0,175.0
4623,224.0,173.0
4624,221.0,175.0
4625,216.0,181.0
4626,213.0,191.0
4627,212.0,205.0
4628,212.0,220.0
4629,212.0,235.0
4630,212.0,247.0
4631,210.0,253.0
4632,206.0,257.0
4633,204.0,258.0
4634,205.0,258.0
4635,208.0,259.0
4636,211.0,263.0
4637,213.0,271.0
4638,213.0,278.0
4639,213.0,283.0
4640,213.0,287.0
4641,212.0,289.0
4642,210.0,290.0
4643,206.0,290.0
4644,203.0,289.0
4645,199.0,289.0
4646,197.0,287.0
4647,193.0,284.0
4648,191.0,280.0
4649,189.0,277.0
4650,189.0,275.0
4651,186.0,270.0
4652,184.0,266.0
4653,182.0,262.0
4654,179.0,257.0
4655,177.0,254.0
4656,174.0,248.0
4657,171.0,244.0
4658,169.0,240.0
4659,165.0,235.0
4660,162.0,230.0
4661,162.0,225.0
4662,161.0,221.0
4663,160.0,217.0
4664,156.0,212.0
4665,154.0,208.0
4666,151.0,204.0
4667,150.0,199.0
4668,148.0,195.0
4669,146.0,191.0
4670,144.0,187.0
4671,141.0,183.0
4672,139.0,179.0
4673,136.0,174.0
4674,134.0,171.0
4675,132.0,167.0
4676,129.0,163.0
4677,127.0,160.0
4678,128.0,157.0
4679,127.0,152.0
4680,126.0,149.0
4681,124.0,146.0
4682,122.0,143.0
4683,121.0,140.0
4684,119.0,136.0
4685,117.0,133.0
4686,115.0,130.0
4687,113.0,127.0
4688,111.0,125.0
4689,109.0,122.0
4690,108.0,119.0
4691,106.0,116.0
4692,104.0,113.0
4693,102.0,111.0
4694,102.0,108.0
4695,101.0,106.0
4696,102.0,104.0
4697,100.0,101.0
4698,99.0,100.0
4699,98.0,96.0
4700,97.0,95.0
4701,94.0,92.0
4702,93.0,90.0
4703,92.0,88.0
4704,90.0,87.0
4705,89.0,85.0
4706,87.0,82.0
4707,86.0,80.0
4708,84.0,79.0
4709,82.0,77.0
4710,80.0,75.0
4711,78.0,74.0
4712,77.0,73.0
4713,76.0,70.0
4714,75.0,69.0
4715,73.0,67.0
4716,71.0,67.0
4717,70.0,65.0
4718,68.0,63.0
4719,67.0,61.0
4720,65.0,60.0
4721,63.0,59.0
4722,62.0,57.0
4723,61.0,56.0
4724,59.0,55.0
4725,59.0,53.0
4726,57.0,51.0
4727,55.0,51.0
4728,55.0,50.0
4729,53.0,49.0
4730,52.0,47.0
4731,52.0,47.0
4732,50.0,46.0
4733,49.0,44.0
4734,48.0,44.0
4735,47.0,43.0
4736,47.0,42.0
4737,45.0,41.0
4738,43.0,41.0
4739,43.0,42.0
4740,41.0,57.0
4741,41.0,75.0
4742,39.0,93.0
4743,39.0,109.0
4744,38.0,126.0
4745,37.0,143.0
4746,35.0,159.0
4747,36.0,172.0
4748,35.0,184.0
4749,33.0,192.0
4750,33.0,200.0
4751,32.0,204.0
4752,31.0,210.0
4753,31.0,212.0
4754,30.0,213.0
4755,30.0,226.0
4756,29.0,240.0
4757,28.0,252.0
4758,28.0,266.0
4759,26.0,278.0
4760,26.0,289.0
4761,24.0,297.0
4762,26.0,304.0
4763,24.0,307.0
4764,23.0,311.0
4765,23.0,312.0
4766,22.0,313.0
4767,22.0,313.0
4768,22.0,311.0
4769,21.0,310.0
4770,20.0,307.0
4771,21.0,304.0
4772,19.0,300.0
4773,19.0,296.0
4774,19.0,293.0
4775,19.0,289.0
4776,18.0,284.0
4777,20.0,279.0
4778,23.0,274.0
4779,25.0,270.0
4780,27.0,265.0
4781,29.0,261.0
4782,30.0,255.0
4783,30.0,250.0
4784,29.0,245.0
4785,31.0,240.0
4786,31.0,235.0
4787,32.0,231.0
4788,32.0,226.0
4789,31.0,221.0
4790,31.0,216.0
4791,31.0,211.0
4792,33.0,207.0
4793,35.0,203.0
4794,39.0,198.0
4795,43.0,194.0
4796,48.0,190.0
4797,51.0,185.0
4798,55.0,181.0
4799,57.0,177.0
4800,57.0,174.0
4801,58.0,170.0
4802,57.0,166.0
4803,57.0,163.0
4804,58.0,158.0
4805,58.0,155.0
4806,57.0,152.0
4807,56.0,148.0
4808,56.0,145.0
4809,55.0,141.0
4810,54.0,138.0
4811,54.0,135.0
4812,55.0,132.0
4813,54.0,130.0
4814,54.0,127.0
4815,53.0,123.0
4816,52.0,120.0
4817,52.0,118.0
4818,53.0,115.0
4819,52.0,112.0
4820,53.0,110.0
4821,53.0,109.0
4822,52.0,105.0
4823,52.0,102.0
4824,51.0,100.0
4825,50.0,99.0
4826,51.0,96.0
4827,53.0,94.0
4828,55.0,92.0
4829,57.0,90.0
4830,57.0,88.0
4831,57.0,86.0
4832,57.0,84.0
4833,55.0,81.0
4834,54.0,80.0
4835,54.0,78.0
4836,55.0,76.0
4837,53.0,75.0
4838,53.0,73.0
4839,52.0,71.0
4840,50.0,70.0
4841,50.0,68.0
4842,49.0,66.0
4843,48.0,65.0
4844,46.0,63.0
4845,46.0,74.0
4846,45.0,92.0
4847,45.0,108.0
4848,46.0,126.0
4849,46.0,140.0
4850,44.0,147.0
4851,43.0,156.0
4852,43.0,163.0
4853,42.0,169.0
4854,41.0,174.0
4855,41.0,176.0
4856,40.0,179.0
4857,41.0,180.0
4858,42.0,181.0
4859,43.0,181.0
4860,45.0,181.0
4861,44.0,190.0
4862,45.0,204.0
4863,44.0,220.0
4864,44.0,233.0
4865,43.0,247.0
4866,42.0,253.0
4867,42.0,263.0
4868,40.0,271.0
4869,39.0,278.0
4870,39.0,283.0
4871,38.0,287.0
4872,39.0,289.0
4873,39.0,290.0
4874,41.0,291.0
4875,43.0,289.0
4876,46.0,288.0
4877,50.0,300.0
4878,53.0,313.0
4879,56.0,324.0
4880,57.0,336.0
4881,59.0,348.0
4882,59.0,357.0
4883,59.0,363.0
4884,58.0,372.0
4885,57.0,382.0
4886,57.0,391.0
4887,57.0,398.0
4888,56.0,403.0
4889,56.0,406.0
4890,56.0,406.0
4891,56.0,407.0
4892,56.0,404.0
4893,56.0,414.0
4894,58.0,424.0
4895,58.0,433.0
4896,59.0,442.0
4897,59.0,451.0
4898,59.0,456.0
4899,59.0,459.0
4900,60.0,458.0
4901,60.0,463.0
4902,60.0,471.0
4903,59.0,478.0
4904,59.0,486.0
4905,59.0,491.0
4906,58.0,494.0
4907,59.0,495.0
4908,59.0,495.0
4909,59.0,494.0
4910,59.0,502.0
4911,60.0,509.0
4912,60.0,516.0
4913,60.0,524.0
4914,59.0,528.0
4915,59.0,529.0
4916,58.0,530.0
4917,56.0,532.0
4918,56.0,539.0
4919,54.0,545.0
4920,52.0,551.0
4921,53.0,554.0
4922,52.0,555.0
4923,51.0,555.0
4924,50.0,554.0
4925,50.0,549.0
4926,50.0,553.0
4927,51.0,559.0
4928,50.0,565.0
4929,49.0,572.0
4930,49.0,576.0
4931,49.0,579.0
4932,49.0,580.0
4933,47.0,575.0
4934,45.0,578.0
4935,45.0,577.0
4936,45.0,570.0
4937,43.0,564.0
4938,43.0,556.0
4939,43.0,550.0
4940,41.0,542.0
4941,41.0,535.0
4942,41.0,534.0
4943,41.0,539.0
4944,40.0,542.0
4945,40.0,542.0
4946,39.0,542.0
4947,38.0,539.0
4948,37.0,536.0
4949,38.0,531.0
4950,36.0,529.0
4951,36.0,536.0
4952,36.0,543.0
4953,35.0,549.0
4954,34.0,556.0
4955,34.0,561.0
4956,34.0,564.0
4957,33.0,564.0
4958,34.0,562.0
4959,33.0,563.0
4960,32.0,570.0
4961,32.0,575.0
4962,31.0,581.0
4963,30.0,584.0
4964,30.0,585.0
4965,29.0,585.0
4966,29.0,583.0
4967,29.0,580.0
4968,28.0,586.0
4969,28.0,592.0
4970,29.0,597.0
4971,28.0,602.0
4972,28.0,603.0
4973,29.0,602.0
4974,28.0,600.0
4975,27.0,599.0
4976,27.0,605.0
4977,27.0,610.0
4978,28.0,614.0
4979,30.0,617.0
4980,32.0,618.0
4981,34.0,617.0
4982,37.0,615.0
4983,39.0,610.0
4984,41.0,606.0
4985,42.0,611.0
4986,42.0,616.0
4987,40.0,622.0
4988,41.0,625.0
4989,40.0,628.0
4990,41.0,626.0
4991,42.0,619.0
4992,41.0,622.0
4993,40.0,628.0
4994,39.0,632.0
4995,38.0,634.0
4996,38.0,632.0
4997,37.0,631.0
4998,36.0,627.0
4999,36.0,622.0
5000,36.0,616.0
5001,35.0,611.0
5002,34.0,616.0
5003,35.0,620.0
5004,36.0,626.0
5005,35.0,630.0
5006,36.0,632.0
5007,34.0,623.0
5008,35.0,626.0
5009,36.0,630.0
5010,35.0,632.0
5011,35.0,632.0
5012,34.0,630.0
5013,34.0,627.0
5014,34.0,622.0
5015,33.0,617.0
5016,32.0,611.0
5017,32.0,603.0
5018,31.0,594.0
5019,31.0,588.0
5020,31.0,578.0
5021,31.0,571.0
5022,32.0,564.0
5023,33.0,556.0
5024,32.0,547.0
5025,31.0,538.0
5026,32.0,530.0
5027,31.0,521.0
5028,31.0,511.0
5029,31.0,502.0
5030,31.0,492.0
5031,31.0,483.0
5032,31.0,473.0
5033,32.0,463.0
5034,32.0,455.0
5035,32.0,445.0
5036,33.0,436.0
5037,33.0,427.0
5038,32.0,418.0
5039,32.0,409.0
5040,32.0,401.0
5041,32.0,392.0
5042,32.0,383.0
5043,33.0,376.0
5044,31.0,367.0
5045,31.0,359.0
5046,30.0,351.0
5047,31.0,343.0
5048,31.0,336.0
5049,32.0,329.0
5050,31.0,321.0
5051,32.0,315.0
5052,32.0,307.0
5053,32.0,300.0
5054,32.0,294.0
5055,31.0,287.0
5056,31.0,280.0
5057,31.0,274.0
5058,33.0,268.0
5059,32.0,263.0
5060,34.0,256.0
5061,32.0,250.0
5062,32.0,245.0
5063,31.0,240.0
5064,33.0,235.0
5065,31.0,228.0
5066,32.0,223.0
5067,33.0,219.0
5068,34.0,222.0
5069,34.0,236.0
5070,36.0,250.0
5071,36.0,263.0
5072,37.0,269.0
5073,35.0,265.0
5074,37.0,270.0
5075,36.0,274.0
5076,39.0,277.0
5077,39.0,278.0
5078,41.0,279.0
5079,40.0,278.0
5080,40.0,277.0
5081,39.0,275.0
5082,39.0,273.0
5083,39.0,271.0
5084,40.0,267.0
5085,42.0,273.0
5086,44.0,286.0
5087,45.0,298.0
5088,47.0,309.0
5089,49.0,314.0
5090,48.0,312.0
5091,47.0,318.0
5092,47.0,323.0
5093,49.0,327.0
5094,49.0,329.0
5095,50.0,330.0
5096,49.0,330.0
5097,48.0,329.0
5098,48.0,327.0
5099,47.0,325.0
5100,47.0,322.0
5101,46.0,319.0
5102,48.0,331.0
5103,48.0,342.0
5104,47.0,353.0
5105,45.0,364.0
5106,46.0,371.0
5107,48.0,370.0
5108,47.0,379.0
5109,47.0,384.0
5110,48.0,389.0
5111,48.0,390.0
5112,48.0,392.0
5113,47.0,391.0
5114,46.0,390.0
5115,46.0,388.0
5116,45.0,384.0
5117,45.0,381.0
5118,45.0,382.0
5119,45.0,394.0
5120,45.0,404.0
5121,44.0,412.0
5122,44.0,417.0
5123,44.0,412.0
5124,44.0,416.0
5125,45.0,421.0
5126,44.0,424.0
5127,44.0,425.0
5128,43.0,425.0
5129,42.0,424.0
5130,43.0,422.0
5131,43.0,419.0
5132,44.0,415.0
5133,45.0,410.0
5134,45.0,406.0
5135,46.0,412.0
5136,45.0,423.0
5137,45.0,432.0
5138,45.0,440.0
5139,47.0,449.0
5140,47.0,445.0
5141,49.0,452.0
5142,49.0,457.0
5143,51.0,460.0
5144,49.0,462.0
5145,49.0,462.0
5146,48.0,461.0
5147,47.0,458.0
5148,46.0,455.0
5149,46.0,451.0
5150,45.0,447.0
5151,45.0,441.0
5152,44.0,434.0
5153,45.0,426.0
5154,44.0,419.0
5155,46.0,412.0
5156,46.0,407.0
5157,46.0,401.0
5158,47.0,395.0
5159,45.0,390.0
5160,45.0,383.0
5161,45.0,376.0
5162,45.0,370.0
5163,47.0,364.0
5164,48.0,357.0
5165,50.0,350.0
5166,52.0,343.0
5167,52.0,336.0
5168,54.0,329.0
5169,53.0,323.0
5170,53.0,317.0
5171,53.0,310.0
5172,52.0,303.0
5173,52.0,297.0
5174,52.0,291.0
5175,52.0,284.0
5176,50.0,278.0
5177,51.0,272.0
5178,53.0,267.0
5179,54.0,261.0
5180,56.0,255.0
5181,59.0,249.0
5182,62.0,244.0
5183,62.0,239.0
5184,62.0,233.0
5185,61.0,228.0
5186,62.0,223.0
5187,63.0,218.0
5188,65.0,213.0
5189,66.0,208.0
5190,65.0,204.0
5191,65.0,200.0
5192,63.0,195.0
5193,63.0,190.0
5194,64.0,186.0
5195,66.0,182.0
5196,68.0,178.0
5197,69.0,174.0
5198,71.0,170.0
5199,70.0,166.0
5200,69.0,162.0
5201,71.0,159.0
5202,73.0,155.0
5203,74.0,151.0
5204,75.0,148.0
5205,76.0,145.0
5206,77.0,142.0
5207,77.0,139.0
5208,75.0,136.0
5209,74.0,132.0
5210,76.0,130.0
5211,78.0,126.0
5212,81.0,124.0
5213,84.0,120.0
5214,86.0,119.0
5215,88.0,116.0
5216,87.0,112.0
5217,87.0,110.0
5218,89.0,108.0
5219,92.0,105.0
5220,96.0,103.0
5221,97.0,101.0
5222,98.0,98.0
5223,98.0,96.0
5224,98.0,94.0
5225,96.0,92.0
5226,96.0,90.0
5227,99.0,89.0
5228,99.0,86.0
5229,102.0,84.0
5230,103.0,81.0
5231,104.0,80.0
5232,104.0,78.0
5233,103.0,76.0
5234,103.0,75.0
5235,105.0,73.0
5236,108.0,71.0
5237,112.0,71.0
5238,112.0,68.0
5239,113.0,67.0
5240,113.0,65.0
5241,111.0,64.0
5242,109.0,62.0
5243,110.0,61.0
5244,111.0,59.0
5245,112.0,59.0
5246,115.0,58.0
5247,116.0,55.0
5248,114.0,54.0
5249,112.0,53.0
5250,114.0,52.0
5251,115.0,62.0
5252,119.0,80.0
5253,121.0,98.0
5254,123.0,115.0
5255,124.0,131.0
5256,124.0,148.0
5257,123.0,163.0
5258,120.0,173.0
5259,119.0,187.0
5260,121.0,201.0
5261,123.0,212.0
5262,125.0,221.0
5263,128.0,229.0
5264,129.0,234.0
5265,128.0,239.0
5266,127.0,242.0
5267,128.0,241.0
5268,129.0,255.0
5269,129.0,266.0
5270,128.0,270.0
5271,127.0,267.0
5272,126.0,262.0
5273,122.0,258.0
5274,120.0,259.0
5275,117.0,265.0
5276,116.0,270.0
5277,112.0,274.0
5278,111.0,275.0
5279,110.0,276.0
5280,108.0,276.0
5281,108.0,276.0
5282,107.0,274.0
5283,106.0,273.0
5284,106.0,270.0
5285,104.0,267.0
5286,103.0,264.0
5287,101.0,260.0
5288,99.0,254.0
5289,97.0,250.0
5290,96.0,246.0
5291,93.0,241.0
5292,91.0,236.0
5293,90.0,232.0
5294,88.0,229.0
5295,86.0,226.0
5296,85.0,223.0
5297,83.0,220.0
5298,82.0,217.0
5299,79.0,213.0
5300,78.0,209.0
5301,78.0,205.0
5302,76.0,203.0
5303,76.0,201.0
5304,74.0,203.0
5305,72.0,207.0
5306,71.0,211.0
5307,71.0,211.0
5308,71.0,211.0
5309,71.0,210.0
5310,73.0,205.0
5311,77.0,202.0
5312,79.0,201.0
5313,83.0,200.0
5314,84.0,201.0
5315,86.0,201.0
5316,85.0,201.0
5317,84.0,200.0
5318,87.0,195.0
5319,89.0,192.0
5320,92.0,190.0
5321,94.0,189.0
5322,94.0,189.0
5323,94.0,189.0
5324,94.0,186.0
5325,93.0,183.0
5326,93.0,181.0
5327,95.0,180.0
5328,100.0,181.0
5329,104.0,180.0
5330,108.0,179.0
5331,113.0,178.0
5332,114.0,176.0
5333,116.0,175.0
5334,115.0,172.0
5335,116.0,169.0
5336,119.0,166.0
5337,122.0,163.0
5338,123.0,162.0
5339,124.0,162.0
5340,123.0,161.0
5341,123.0,158.0
5342,120.0,155.0
5343,120.0,155.0
5344,121.0,154.0
5345,123.0,152.0
5346,126.0,150.0
5347,128.0,149.0
5348,129.0,147.0
5349,127.0,144.0
5350,126.0,142.0
5351,128.0,141.0
5352,132.0,138.0
5353,136.0,136.0
5354,139.0,133.0
5355,141.0,132.0
5356,143.0,132.0
5357,143.0,130.0
5358,142.0,128.0
5359,140.0,127.0
5360,139.0,126.0
5361,139.0,124.0
5362,141.0,122.0
5363,144.0,120.0
5364,144.0,118.0
5365,144.0,116.0
5366,141.0,114.0
5367,141.0,112.0
5368,144.0,110.0
5369,147.0,108.0
5370,150.0,106.0
5371,152.0,106.0
5372,153.0,107.0
5373,153.0,106.0
5374,152.0,106.0
5375,149.0,104.0
5376,147.0,103.0
5377,148.0,102.0
5378,150.0,101.0
5379,152.0,100.0
5380,156.0,98.0
5381,157.0,97.0
5382,157.0,95.0
5383,154.0,94.0
5384,154.0,92.0
5385,157.0,90.0
5386,158.0,88.0
5387,161.0,89.0
5388,161.0,90.0
5389,162.0,91.0
5390,161.0,94.0
5391,159.0,94.0
5392,156.0,92.0
5393,155.0,92.0
5394,155.0,92.0
5395,157.0,92.0
5396,159.0,91.0
5397,160.0,91.0
5398,161.0,90.0
5399,159.0,90.0
5400,157.0,88.0
5401,158.0,87.0
5402,160.0,85.0
5403,162.0,84.0
5404,164.0,85.0
5405,163.0,87.0
5406,163.0,90.0
5407,162.0,92.0
5408,160.0,92.0
5409,157.0,90.0
5410,156.0,91.0
5411,157.0,91.0
5412,159.0,91.0
5413,160.0,92.0
5414,161.0,92.0
5415,161.0,91.0
5416,159.0,91.0
5417,158.0,90.0
5418,160.0,89.0
5419,161.0,88.0
5420,163.0,86.0
5421,162.0,87.0
5422,162.0,90.0
5423,161.0,93.0
5424,161.0,94.0
5425,157.0,95.0
5426,156.0,94.0
5427,155.0,94.0
5428,157.0,95.0
5429,160.0,95.0
5430,163.0,95.0
5431,175.0,94.0
5432,187.0,93.0
5433,201.0,91.0
5434,212.0,90.0
5435,224.0,90.0
5436,235.0,92.0
5437,242.0,94.0
5438,245.0,97.0
5439,244.0,101.0
5440,240.0,103.0
5441,236.0,103.0
5442,236.0,102.0
5443,237.0,104.0
5444,237.0,106.0
5445,238.0,107.0
5446,239.0,109.0
5447,240.0,109.0
5448,241.0,109.0
5449,242.0,108.0
5450,243.0,108.0
5451,244.0,107.0
5452,245.0,107.0
5453,244.0,105.0
5454,244.0,104.0
5455,242.0,105.0
5456,241.0,107.0
5457,239.0,108.0
5458,237.0,106.0
5459,234.0,106.0
5460,231.0,106.0
5461,227.0,105.0
5462,223.0,104.0
5463,220.0,104.0
5464,217.0,103.0
5465,214.0,101.0
5466,212.0,100.0
5467,210.0,100.0
5468,209.0,97.0
5469,207.0,96.0
5470,204.0,95.0
5471,201.0,97.0
5472,198.0,99.0
5473,195.0,101.0
5474,191.0,102.0
5475,187.0,101.0
5476,183.0,101.0
5477,179.0,101.0
5478,176.0,101.0
5479,172.0,100.0
5480,168.0,100.0
5481,165.0,99.0
5482,163.0,98.0
5483,160.0,97.0
5484,158.0,96.0
5485,156.0,94.0
5486,154.0,93.0
5487,151.0,94.0
5488,149.0,97.0
5489,145.0,101.0
5490,141.0,103.0
5491,138.0,103.0
5492,137.0,101.0
5493,136.0,103.0
5494,135.0,103.0
5495,134.0,103.0
5496,134.0,103.0
5497,133.0,103.0
5498,133.0,103.0
5499,129.0,102.0
5500,127.0,101.0
5501,126.0,99.0
5502,125.0,99.0
5503,125.0,97.0
5504,122.0,99.0
5505,120.0,102.0
5506,118.0,105.0
5507,116.0,107.0
5508,114.0,106.0
5509,113.0,105.0
5510,113.0,107.0
5511,113.0,108.0
5512,113.0,108.0
5513,113.0,108.0
5514,113.0,107.0
5515,112.0,106.0
5516,111.0,106.0
5517,108.0,105.0
5518,109.0,103.0
5519,111.0,101.0
5520,113.0,101.0
5521,114.0,104.0
5522,114.0,107.0
5523,114.0,111.0
5524,113.0,112.0
5525,111.0,110.0
5526,113.0,110.0
5527,116.0,112.0
5528,121.0,112.0
5529,128.0,112.0
5530,135.0,112.0
5531,139.0,111.0
5532,143.0,111.0
5533,144.0,110.0
5534,142.0,109.0
5535,144.0,108.0
5536,147.0,106.0
5537,151.0,106.0
5538,153.0,110.0
5539,154.0,114.0
5540,155.0,118.0
5541,154.0,117.0
5542,151.0,114.0
5543,149.0,116.0
5544,149.0,117.0
5545,150.0,117.0
5546,151.0,117.0
5547,151.0,118.0
5548,151.0,116.0
5549,149.0,117.0
5550,149.0,115.0
5551,151.0,114.0
5552,151.0,112.0
5553,149.0,111.0
5554,147.0,114.0
5555,146.0,118.0
5556,144.0,123.0
5557,143.0,125.0
5558,142.0,125.0
5559,139.0,123.0
5560,135.0,125.0
5561,133.0,126.0
5562,129.0,126.0
5563,127.0,127.0
5564,125.0,127.0
5565,124.0,126.0
5566,123.0,125.0
5567,123.0,125.0
5568,123.0,124.0
5569,122.0,121.0
5570,121.0,121.0
5571,121.0,124.0
5572,119.0,128.0
5573,117.0,132.0
5574,116.0,132.0
5575,113.0,131.0
5576,111.0,130.0
5577,109.0,132.0
5578,109.0,132.0
5579,107.0,132.0
5580,105.0,132.0
5581,103.0,132.0
5582,101.0,131.0
5583,101.0,131.0
5584,101.0,129.0
5585,100.0,128.0
5586,100.0,126.0
5587,100.0,127.0
5588,99.0,130.0
5589,97.0,134.0
5590,95.0,137.0
5591,94.0,136.0
5592,92.0,134.0
5593,90.0,135.0
5594,88.0,136.0
5595,87.0,136.0
5596,86.0,136.0
5597,84.0,135.0
5598,82.0,134.0
5599,82.0,134.0
5600,80.0,132.0
5601,81.0,132.0
5602,80.0,129.0
5603,80.0,127.0
5604,80.0,129.0
5605,78.0,133.0
5606,77.0,136.0
5607,76.0,138.0
5608,74.0,136.0
5609,73.0,135.0
5610,74.0,136.0
5611,75.0,137.0
5612,75.0,137.0
5613,77.0,136.0
5614,78.0,135.0
5615,79.0,135.0
5616,78.0,134.0
5617,76.0,132.0
5618,76.0,131.0
5619,77.0,129.0
5620,76.0,128.0
5621,76.0,130.0
5622,79.0,134.0
5623,80.0,136.0
5624,79.0,137.0
5625,79.0,134.0
5626,80.0,134.0
5627,83.0,133.0
5628,87.0,134.0
5629,91.0,134.0
5630,94.0,133.0
5631,95.0,132.0
5632,96.0,132.0
5633,94.0,130.0
5634,97.0,128.0
5635,98.0,127.0
5636,102.0,125.0
5637,105.0,125.0
5638,106.0,128.0
5639,107.0,132.0
5640,107.0,136.0
5641,106.0,134.0
5642,104.0,131.0
5643,104.0,132.0
5644,106.0,134.0
5645,110.0,133.0
5646,114.0,133.0
5647,117.0,133.0
5648,120.0,132.0
5649,122.0,131.0
5650,121.0,130.0
5651,120.0,128.0
5652,122.0,126.0
5653,123.0,126.0
5654,125.0,127.0
5655,126.0,131.0
5656,127.0,136.0
5657,125.0,136.0
5658,124.0,135.0
5659,122.0,134.0
5660,122.0,135.0
5661,123.0,136.0
5662,125.0,137.0
5663,126.0,137.0
5664,127.0,136.0
5665,128.0,135.0
5666,127.0,134.0
5667,125.0,132.0
5668,127.0,131.0
5669,130.0,129.0
5670,132.0,128.0
5671,132.0,131.0
5672,133.0,136.0
5673,134.0,138.0
5674,132.0,139.0
5675,130.0,137.0
5676,128.0,137.0
5677,129.0,138.0
5678,130.0,139.0
5679,131.0,139.0
5680,133.0,138.0
5681,134.0,138.0
5682,134.0,137.0
5683,132.0,136.0
5684,132.0,134.0
5685,133.0,133.0
5686,135.0,131.0
5687,136.0,132.0
5688,137.0,136.0
5689,138.0,140.0
5690,137.0,144.0
5691,136.0,143.0
5692,133.0,140.0
5693,131.0,141.0
5694,131.0,143.0
5695,132.0,143.0
5696,133.0,143.0
5697,133.0,143.0
5698,132.0,142.0
5699,130.0,141.0
5700,130.0,140.0
5701,133.0,139.0
5702,134.0,136.0
5703,136.0,136.0
5704,138.0,138.0
5705,139.0,143.0
5706,139.0,148.0
5707,137.0,150.0
5708,134.0,148.0
5709,132.0,146.0
5710,132.0,148.0
5711,132.0,149.0
5712,133.0,151.0
5713,134.0,150.0
5714,132.0,150.0
5715,130.0,150.0
5716,129.0,148.0
5717,129.0,147.0
5718,130.0,145.0
5719,130.0,142.0
5720,130.0,143.0
5721,130.0,147.0
5722,128.0,151.0
5723,127.0,155.0
5724,125.0,155.0
5725,123.0,153.0
5726,123.0,154.0
5727,124.0,156.0
5728,126.0,157.0
5729,128.0,157.0
5730,129.0,156.0
5731,130.0,156.0
5732,130.0,155.0
5733,128.0,154.0
5734,127.0,152.0
5735,128.0,150.0
5736,129.0,149.0
5737,129.0,151.0
5738,129.0,154.0
5739,128.0,159.0
5740,127.0,162.0
5741,124.0,162.0
5742,122.0,158.0
5743,123.0,159.0
5744,124.0,161.0
5745,125.0,161.0
5746,127.0,162.0
5747,127.0,162.0
5748,129.0,161.0
5749,126.0,160.0
5750,125.0,159.0
5751,125.0,157.0
5752,126.0,155.0
5753,127.0,155.0
5754,127.0,156.0
5755,127.0,161.0
5756,126.0,165.0
5757,125.0,167.0
5758,122.0,165.0
5759,120.0,163.0
5760,121.0,165.0
5761,123.0,167.0
5762,124.0,167.0
5763,125.0,167.0
5764,127.0,166.0
5765,127.0,166.0
5766,125.0,164.0
5767,124.0,162.0
5768,126.0,161.0
5769,127.0,157.0
5770,127.0,158.0
5771,127.0,161.0
5772,128.0,166.0
5773,126.0,170.0
5774,124.0,170.0
5775,123.0,167.0
5776,122.0,167.0
5777,123.0,169.0
5778,125.0,170.0
5779,127.0,170.0
5780,128.0,169.0
5781,129.0,169.0
5782,128.0,168.0
5783,126.0,166.0
5784,127.0,165.0
5785,128.0,163.0
5786,129.0,160.0
5787,130.0,162.0
5788,130.0,166.0
5789,129.0,171.0
5790,128.0,173.0
5791,126.0,173.0
5792,123.0,169.0
5793,124.0,171.0
5794,124.0,172.0
5795,124.0,172.0
5796,126.0,171.0
5797,126.0,171.0
5798,125.0,170.0
5799,122.0,169.0
5800,121.0,167.0
5801,122.0,165.0
5802,124.0,163.0
5803,125.0,162.0
5804,124.0,163.0
5805,124.0,168.0
5806,123.0,172.0
5807,121.0,173.0
5808,119.0,171.0
5809,118.0,170.0
5810,118.0,171.0
5811,120.0,172.0
5812,121.0,171.0
5813,122.0,171.0
5814,122.0,170.0
5815,122.0,169.0
5816,119.0,168.0
5817,119.0,166.0
5818,121.0,164.0
5819,122.0,161.0
5820,122.0,161.0
5821,122.0,164.0
5822,121.0,168.0
5823,121.0,172.0
5824,118.0,172.0
5825,115.0,169.0
5826,115.0,169.0
5827,116.0,171.0
5828,117.0,171.0
5829,119.0,171.0
5830,121.0,171.0
5831,120.0,169.0
5832,119.0,168.0
5833,117.0,166.0
5834,118.0,164.0
5835,118.0,162.0
5836,119.0,160.0
5837,120.0,161.0
5838,120.0,166.0
5839,119.0,169.0
5840,118.0,172.0
5841,117.0,170.0
5842,115.0,167.0
5843,114.0,169.0
5844,115.0,169.0
5845,117.0,170.0
5846,117.0,170.0
5847,118.0,168.0
5848,117.0,167.0
5849,115.0,166.0
5850,115.0,164.0
5851,116.0,163.0
5852,117.0,159.0
5853,117.0,158.0
5854,118.0,161.0
5855,117.0,165.0
5856,117.0,170.0
5857,115.0,170.0
5858,114.0,168.0
5859,112.0,167.0
5860,112.0,167.0
5861,113.0,169.0
5862,114.0,169.0
5863,115.0,169.0
5864,116.0,168.0
5865,115.0,166.0
5866,113.0,165.0
5867,113.0,163.0
5868,114.0,161.0
5869,115.0,159.0
5870,115.0,159.0
5871,116.0,163.0
5872,115.0,167.0
5873,114.0,169.0
5874,112.0,169.0
5875,110.0,166.0
5876,110.0,167.0
5877,110.0,168.0
5878,112.0,168.0
5879,113.0,168.0
5880,115.0,168.0
5881,113.0,166.0
5882,112.0,165.0
5883,111.0,164.0
5884,111.0,162.0
5885,113.0,159.0
5886,114.0,157.0
5887,114.0,158.0
5888,114.0,162.0
5889,113.0,166.0
5890,113.0,168.0
5891,110.0,167.0
5892,109.0,164.0
5893,110.0,166.0
5894,111.0,167.0
5895,112.0,166.0
5896,115.0,165.0
5897,115.0,165.0
5898,116.0,164.0
5899,112.0,162.0
5900,112.0,161.0
5901,113.0,159.0
5902,115.0,156.0
5903,115.0,155.0
5904,115.0,157.0
5905,116.0,161.0
5906,116.0,165.0
5907,113.0,166.0
5908,112.0,163.0
5909,110.0,163.0
5910,111.0,163.0
5911,111.0,163.0
5912,111.0,163.0
5913,113.0,164.0
5914,113.0,163.0
5915,111.0,161.0
5916,110.0,160.0
5917,110.0,158.0
5918,111.0,155.0
5919,111.0,153.0
5920,112.0,153.0
5921,112.0,156.0
5922,111.0,161.0
5923,111.0,163.0
5924,109.0,162.0
5925,107.0,160.0
5926,107.0,160.0
5927,108.0,161.0
5928,109.0,161.0
5929,111.0,161.0
5930,113.0,161.0
5931,112.0,159.0
5932,110.0,157.0
5933,109.0,156.0
5934,109.0,155.0
5935,111.0,152.0
5936,111.0,150.0
5937,111.0,152.0
5938,111.0,157.0
5939,111.0,161.0
5940,110.0,162.0
5941,108.0,159.0
5942,106.0,158.0
5943,106.0,158.0
5944,108.0,159.0
5945,109.0,160.0
5946,110.0,159.0
5947,110.0,159.0
5948,110.0,158.0
5949,107.0,155.0
5950,107.0,154.0
5951,108.0,152.0
5952,110.0,150.0
5953,110.0,149.0
5954,111.0,152.0
5955,110.0,157.0
5956,110.0,159.0
5957,108.0,161.0
5958,106.0,158.0
5959,106.0,158.0
5960,107.0,158.0
5961,108.0,158.0
5962,109.0,159.0
5963,111.0,158.0
5964,112.0,158.0
5965,111.0,156.0
5966,109.0,155.0
5967,109.0,153.0
5968,110.0,151.0
5969,112.0,149.0
5970,113.0,150.0
5971,113.0,153.0
5972,113.0,156.0
5973,113.0,159.0
5974,110.0,158.0
5975,109.0,155.0
5976,109.0,157.0
5977,110.0,157.0
5978,112.0,157.0
5979,115.0,157.0
5980,115.0,156.0
5981,116.0,156.0
5982,115.0,154.0
5983,113.0,153.0
5984,115.0,152.0
5985,116.0,149.0
5986,117.0,148.0
5987,118.0,148.0
5988,117.0,152.0
5989,117.0,156.0
5990,116.0,157.0
5991,114.0,156.0
5992,113.0,154.0
5993,113.0,155.0
5994,113.0,155.0
5995,115.0,156.0
5996,116.0,155.0
5997,117.0,154.0
5998,118.0,152.0
5999,116.0,151.0
6000,114.0,150.0
6001,117.0,149.0
6002,118.0,146.0
6003,119.0,145.0
6004,120.0,148.0
6005,120.0,152.0
6006,119.0,155.0
6007,118.0,155.0
6008,115.0,153.0
6009,115.0,153.0
6010,116.0,153.0
6011,118.0,154.0
6012,120.0,155.0
6013,122.0,153.0
6014,124.0,152.0
6015,124.0,152.0
6016,123.0,150.0
6017,122.0,148.0
6018,124.0,146.0
6019,126.0,144.0
6020,126.0,145.0
6021,127.0,147.0
6022,128.0,152.0
6023,127.0,154.0
6024,126.0,154.0
6025,123.0,151.0
6026,123.0,152.0
6027,123.0,153.0
6028,124.0,153.0
6029,126.0,153.0
6030,126.0,152.0
6031,126.0,151.0
6032,124.0,149.0
6033,123.0,148.0
6034,125.0,147.0
6035,126.0,144.0
6036,128.0,144.0
6037,129.0,144.0
6038,128.0,149.0
6039,128.0,152.0
6040,127.0,153.0
6041,124.0,152.0
6042,122.0,150.0
6043,122.0,152.0
6044,124.0,152.0
6045,126.0,152.0
6046,126.0,151.0
6047,128.0,151.0
6048,128.0,149.0
6049,127.0,148.0
6050,125.0,147.0
6051,127.0,145.0
6052,127.0,143.0
6053,129.0,142.0
6054,129.0,145.0
6055,130.0,149.0
6056,129.0,152.0
6057,127.0,152.0
6058,126.0,149.0
6059,125.0,149.0
6060,124.0,151.0
6061,126.0,150.0
6062,127.0,151.0
6063,129.0,150.0
6064,129.0,150.0
6065,129.0,148.0
6066,127.0,146.0
6067,127.0,144.0
6068,128.0,144.0
6069,130.0,140.0
6070,130.0,141.0
6071,132.0,146.0
6072,131.0,149.0
6073,131.0,152.0
6074,128.0,151.0
6075,126.0,147.0
6076,125.0,149.0
6077,127.0,150.0
6078,128.0,150.0
6079,129.0,150.0
6080,131.0,149.0
6081,130.0,148.0
6082,129.0,146.0
6083,128.0,145.0
6084,128.0,144.0
6085,130.0,142.0
6086,131.0,140.0
6087,131.0,141.0
6088,132.0,145.0
6089,132.0,149.0
6090,131.0,150.0
6091,128.0,148.0
6092,126.0,146.0
6093,126.0,148.0
6094,127.0,148.0
6095,129.0,148.0
6096,130.0,147.0
6097,132.0,147.0
6098,132.0,145.0
6099,129.0,145.0
6100,129.0,143.0
6101,129.0,141.0
6102,130.0,138.0
6103,131.0,138.0
6104,131.0,140.0
6105,132.0,144.0
6106,131.0,148.0
6107,129.0,147.0
6108,126.0,145.0
6109,126.0,145.0
6110,125.0,146.0
6111,125.0,147.0
6112,126.0,146.0
6113,127.0,145.0
6114,127.0,145.0
6115,127.0,145.0
6116,124.0,142.0
6117,124.0,141.0
6118,125.0,139.0
6119,126.0,136.0
6120,127.0,137.0
6121,127.0,142.0
6122,127.0,145.0
6123,126.0,149.0
6124,124.0,147.0
6125,121.0,143.0
6126,121.0,145.0
6127,121.0,146.0
6128,122.0,146.0
6129,123.0,146.0
6130,125.0,145.0
6131,124.0,144.0
6132,123.0,142.0
6133,122.0,141.0
6134,121.0,140.0
6135,123.0,137.0
6136,123.0,137.0
6137,124.0,139.0
6138,125.0,142.0
6139,123.0,146.0
6140,123.0,146.0
6141,120.0,144.0
6142,118.0,143.0
6143,118.0,145.0
6144,120.0,145.0
6145,121.0,145.0
6146,121.0,145.0
6147,123.0,144.0
6148,122.0,143.0
6149,121.0,142.0
6150,119.0,141.0
6151,120.0,138.0
6152,120.0,135.0
6153,121.0,136.0
6154,122.0,140.0
6155,122.0,143.0
6156,121.0,146.0
6157,119.0,146.0
6158,117.0,143.0
6159,116.0,144.0
6160,114.0,145.0
6161,115.0,145.0
6162,116.0,145.0
6163,118.0,145.0
6164,117.0,144.0
6165,116.0,143.0
6166,115.0,142.0
6167,114.0,140.0
6168,114.0,138.0
6169,115.0,136.0
6170,115.0,137.0
6171,116.0,141.0
6172,115.0,145.0
6173,115.0,147.0
6174,113.0,146.0
6175,110.0,143.0
6176,109.0,144.0
6177,109.0,145.0
6178,110.0,145.0
6179,111.0,145.0
6180,111.0,145.0
6181,111.0,143.0
6182,110.0,142.0
6183,108.0,141.0
6184,107.0,139.0
6185,109.0,136.0
6186,109.0,135.0
6187,109.0,138.0
6188,109.0,142.0
6189,109.0,146.0
6190,107.0,147.0
6191,106.0,145.0
6192,103.0,144.0
6193,103.0,145.0
6194,103.0,146.0
6195,103.0,145.0
6196,104.0,145.0
6197,104.0,145.0
6198,103.0,143.0
6199,102.0,142.0
6200,101.0,141.0
6201,100.0,139.0
6202,100.0,138.0
6203,101.0,138.0
6204,100.0,141.0
6205,100.0,145.0
6206,99.0,148.0
6207,98.0,148.0
6208,96.0,146.0
6209,95.0,146.0
6210,95.0,148.0
6211,95.0,148.0
6212,95.0,148.0
6213,96.0,147.0
6214,97.0,147.0
6215,96.0,146.0
6216,95.0,144.0
6217,94.0,143.0
6218,94.0,141.0
6219,94.0,139.0
6220,94.0,141.0
6221,94.0,145.0
6222,95.0,149.0
6223,95.0,152.0
6224,92.0,150.0
6225,91.0,148.0
6226,89.0,149.0
6227,88.0,150.0
6228,89.0,151.0
6229,88.0,151.0
6230,89.0,151.0
6231,88.0,149.0
6232,88.0,148.0
6233,86.0,147.0
6234,85.0,145.0
6235,86.0,143.0
6236,86.0,142.0
6237,86.0,145.0
6238,86.0,149.0
6239,86.0,153.0
6240,86.0,155.0
6241,83.0,152.0
6242,82.0,152.0
6243,81.0,152.0
6244,80.0,153.0
6245,80.0,155.0
6246,81.0,153.0
6247,81.0,153.0
6248,81.0,151.0
6249,80.0,151.0
6250,79.0,149.0
6251,79.0,147.0
6252,78.0,145.0
6253,78.0,145.0
6254,78.0,148.0
6255,78.0,151.0
6256,77.0,154.0
6257,76.0,154.0
6258,75.0,151.0
6259,72.0,152.0
6260,72.0,152.0
6261,72.0,154.0
6262,72.0,153.0
6263,73.0,153.0
6264,74.0,152.0
6265,74.0,151.0
6266,75.0,149.0
6267,74.0,148.0
6268,73.0,146.0
6269,72.0,144.0
6270,71.0,145.0
6271,71.0,148.0
6272,72.0,151.0
6273,73.0,153.0
6274,72.0,151.0
6275,70.0,149.0
6276,69.0,150.0
6277,68.0,151.0
6278,69.0,151.0
6279,67.0,151.0
6280,68.0,151.0
6281,67.0,149.0
6282,67.0,147.0
6283,67.0,146.0
6284,65.0,145.0
6285,64.0,142.0
6286,64.0,141.0
6287,65.0,143.0
6288,65.0,146.0
6289,64.0,150.0
6290,64.0,151.0
6291,64.0,148.0
6292,62.0,147.0
6293,61.0,148.0
6294,60.0,148.0
6295,61.0,148.0
6296,61.0,148.0
6297,61.0,147.0
6298,61.0,146.0
6299,61.0,144.0
6300,61.0,143.0
6301,60.0,141.0
6302,59.0,138.0
6303,59.0,139.0
6304,60.0,142.0
6305,60.0,146.0
6306,60.0,148.0
6307,60.0,148.0
6308,59.0,145.0
6309,58.0,146.0
6310,57.0,147.0
6311,57.0,147.0
6312,57.0,146.0
6313,58.0,145.0
6314,58.0,145.0
6315,57.0,144.0
6316,56.0,142.0
6317,56.0,140.0
6318,56.0,138.0
6319,55.0,136.0
6320,55.0,138.0
6321,56.0,141.0
6322,55.0,145.0
6323,56.0,147.0
6324,55.0,146.0
6325,54.0,144.0
6326,53.0,145.0
6327,53.0,146.0
6328,52.0,145.0
6329,52.0,145.0
6330,52.0,145.0
6331,54.0,144.0
6332,53.0,142.0
6333,53.0,141.0
6334,53.0,139.0
6335,51.0,137.0
6336,51.0,136.0
6337,51.0,138.0
6338,52.0,143.0
6339,51.0,146.0
6340,52.0,146.0
6341,51.0,144.0
6342,51.0,144.0
6343,49.0,145.0
6344,48.0,145.0
6345,47.0,146.0
6346,47.0,144.0
6347,47.0,144.0
6348,47.0,144.0
6349,47.0,141.0
6350,46.0,140.0
6351,45.0,138.0
6352,45.0,135.0
6353,44.0,135.0
6354,44.0,138.0
6355,44.0,142.0
6356,44.0,145.0
6357,45.0,143.0
6358,44.0,142.0
6359,42.0,142.0
6360,42.0,143.0
6361,42.0,143.0
6362,42.0,143.0
6363,43.0,141.0
6364,44.0,142.0
6365,44.0,140.0
6366,45.0,138.0
6367,45.0,136.0
6368,44.0,134.0
6369,44.0,133.0
6370,44.0,134.0
6371,43.0,138.0
6372,44.0,141.0
6373,44.0,143.0
6374,44.0,141.0
6375,43.0,139.0
6376,42.0,140.0
6377,41.0,141.0
6378,41.0,141.0
6379,39.0,141.0
6380,38.0,140.0
6381,39.0,139.0
6382,39.0,137.0
6383,38.0,136.0
6384,37.0,135.0
6385,37.0,132.0
6386,36.0,133.0
6387,37.0,134.0
6388,37.0,139.0
6389,37.0,142.0
6390,37.0,143.0
6391,37.0,141.0
6392,36.0,140.0
6393,36.0,142.0
6394,36.0,142.0
6395,35.0,141.0
6396,36.0,142.0
6397,36.0,141.0
6398,36.0,140.0
6399,38.0,139.0
6400,38.0,137.0
6401,37.0,135.0
6402,37.0,134.0
6403,37.0,134.0
6404,36.0,137.0
6405,37.0,142.0
6406,37.0,145.0
6407,37.0,144.0
6408,37.0,142.0
6409,36.0,142.0
6410,36.0,143.0
6411,37.0,143.0
6412,35.0,143.0
6413,35.0,143.0
6414,36.0,143.0
6415,36.0,142.0
6416,37.0,140.0
6417,38.0,139.0
6418,37.0,137.0
6419,38.0,135.0
6420,36.0,137.0
6421,36.0,141.0
6422,37.0,145.0
6423,37.0,147.0
6424,37.0,146.0
6425,38.0,144.0
6426,37.0,145.0
6427,36.0,146.0
6428,37.0,146.0
6429,35.0,146.0
6430,35.0,145.0
6431,34.0,144.0
6432,34.0,144.0
6433,34.0,142.0
6434,34.0,140.0
6435,33.0,138.0
6436,32.0,139.0
6437,33.0,142.0
6438,33.0,146.0
6439,34.0,149.0
6440,34.0,151.0
6441,35.0,148.0
6442,34.0,148.0
6443,35.0,150.0
6444,33.0,151.0
6445,32.0,150.0
6446,33.0,150.0
6447,33.0,149.0
6448,34.0,149.0
6449,34.0,147.0
6450,35.0,146.0
6451,35.0,144.0
6452,34.0,142.0
6453,34.0,143.0
6454,34.0,145.0
6455,33.0,149.0
6456,34.0,152.0
6457,34.0,152.0
6458,34.0,148.0
6459,34.0,149.0
6460,32.0,150.0
6461,31.0,150.0
6462,31.0,150.0
6463,33.0,149.0
6464,34.0,148.0
6465,34.0,148.0
6466,34.0,146.0
6467,34.0,145.0
6468,35.0,142.0
6469,34.0,140.0
6470,34.0,143.0
6471,35.0,146.0
6472,34.0,150.0
6473,36.0,151.0
6474,35.0,149.0
6475,36.0,147.0
6476,35.0,149.0
6477,35.0,151.0
6478,34.0,149.0
6479,33.0,149.0
6480,33.0,148.0
6481,34.0,148.0
6482,33.0,146.0
6483,34.0,144.0
6484,33.0,142.0
6485,33.0,139.0
6486,32.0,139.0
6487,33.0,143.0
6488,32.0,146.0
6489,32.0,150.0
6490,33.0,150.0
6491,34.0,147.0
6492,34.0,147.0
6493,33.0,148.0
6494,33.0,149.0
6495,32.0,149.0
6496,33.0,148.0
6497,32.0,147.0
6498,33.0,145.0
6499,33.0,145.0
6500,34.0,143.0
6501,34.0,141.0
6502,33.0,139.0
6503,33.0,140.0
6504,33.0,144.0
6505,34.0,148.0
6506,34.0,150.0
6507,35.0,149.0
6508,35.0,146.0
6509,36.0,148.0
6510,34.0,148.0
6511,33.0,148.0
6512,32.0,148.0
6513,32.0,148.0
6514,34.0,146.0
6515,32.0,145.0
6516,31.0,143.0
6517,30.0,142.0
6518,30.0,140.0
6519,31.0,139.0
6520,31.0,141.0
6521,31.0,145.0
6522,32.0,149.0
6523,32.0,150.0
6524,33.0,148.0
6525,32.0,147.0
6526,33.0,148.0
6527,31.0,149.0
6528,31.0,149.0
6529,33.0,149.0
6530,33.0,148.0
6531,35.0,147.0
6532,35.0,146.0
6533,37.0,144.0
6534,38.0,143.0
6535,38.0,140.0
6536,38.0,140.0
6537,37.0,144.0
6538,37.0,147.0
6539,37.0,150.0
6540,38.0,149.0
6541,38.0,148.0
6542,37.0,148.0
6543,35.0,149.0
6544,35.0,149.0
6545,35.0,149.0
6546,36.0,149.0
6547,35.0,148.0
6548,35.0,147.0
6549,36.0,145.0
6550,35.0,144.0
6551,35.0,141.0
6552,35.0,139.0
6553,35.0,141.0
6554,35.0,145.0
6555,35.0,149.0
6556,36.0,150.0
6557,36.0,150.0
6558,36.0,148.0
6559,35.0,149.0
6560,36.0,150.0
6561,34.0,150.0
6562,34.0,148.0
6563,34.0,149.0
6564,34.0,148.0
6565,34.0,146.0
6566,34.0,144.0
6567,33.0,143.0
6568,32.0,141.0
6569,33.0,141.0
6570,33.0,143.0
6571,34.0,147.0
6572,34.0,151.0
6573,35.0,152.0
6574,35.0,149.0
6575,34.0,149.0
6576,34.0,150.0
6577,33.0,151.0
6578,33.0,150.0
6579,33.0,150.0
6580,33.0,149.0
6581,33.0,148.0
6582,31.0,147.0
6583,31.0,146.0
6584,31.0,144.0
6585,31.0,141.0
6586,31.0,142.0
6587,31.0,145.0
6588,32.0,148.0
6589,32.0,152.0
6590,32.0,151.0
6591,32.0,147.0
6592,32.0,149.0
6593,31.0,149.0
6594,31.0,149.0
6595,31.0,150.0
6596,32.0,149.0
6597,33.0,148.0
6598,34.0,147.0
6599,33.0,146.0
6600,33.0,144.0
6601,32.0,141.0
6602,32.0,140.0
6603,32.0,141.0
6604,33.0,145.0
6605,33.0,149.0
6606,34.0,150.0
6607,35.0,150.0
6608,34.0,148.0
6609,33.0,149.0
6610,32.0,150.0
6611,32.0,150.0
6612,33.0,150.0
6613,33.0,149.0
6614,33.0,149.0
6615,33.0,147.0
6616,33.0,145.0
6617,33.0,144.0
6618,33.0,141.0
6619,33.0,140.0
6620,34.0,143.0
6621,33.0,147.0
6622,34.0,150.0
6623,35.0,151.0
6624,34.0,149.0
6625,34.0,148.0
6626,33.0,150.0
6627,32.0,149.0
6628,32.0,150.0
6629,32.0,150.0
6630,32.0,148.0
6631,33.0,148.0
6632,34.0,146.0
6633,34.0,145.0
6634,33.0,143.0
6635,32.0,140.0
6636,32.0,141.0
6637,33.0,144.0
6638,34.0,149.0
6639,35.0,151.0
6640,34.0,151.0
6641,34.0,148.0
6642,33.0,149.0
6643,33.0,150.0
6644,33.0,151.0
6645,33.0,150.0
6646,33.0,150.0
6647,35.0,148.0
6648,36.0,148.0
6649,36.0,147.0
6650,36.0,146.0
6651,36.0,143.0
6652,35.0,140.0
6653,36.0,143.0
6654,36.0,146.0
6655,36.0,150.0
6656,37.0,152.0
6657,37.0,150.0
6658,36.0,147.0
6659,36.0,149.0
6660,35.0,151.0
6661,35.0,149.0
6662,36.0,150.0
6663,37.0,149.0
6664,37.0,147.0
6665,38.0,146.0
6666,39.0,144.0
6667,39.0,143.0
6668,37.0,140.0
6669,37.0,140.0
6670,39.0,143.0
6671,38.0,146.0
6672,39.0,150.0
6673,39.0,150.0
6674,40.0,147.0
6675,40.0,146.0
6676,39.0,149.0
6677,38.0,148.0
6678,38.0,148.0
6679,38.0,147.0
6680,39.0,146.0
6681,38.0,146.0
6682,38.0,144.0
6683,38.0,143.0
6684,38.0,141.0
6685,36.0,138.0
6686,37.0,139.0
6687,37.0,143.0
6688,38.0,147.0
6689,38.0,149.0
6690,38.0,147.0
6691,38.0,145.0
6692,37.0,146.0
6693,37.0,147.0
6694,37.0,147.0
6695,37.0,147.0
6696,38.0,146.0
6697,39.0,146.0
6698,40.0,144.0
6699,40.0,143.0
6700,41.0,141.0
6701,40.0,140.0
6702,40.0,138.0
6703,40.0,140.0
6704,40.0,144.0
6705,40.0,147.0
6706,40.0,149.0
6707,41.0,146.0
6708,41.0,146.0
6709,41.0,146.0
6710,40.0,147.0
6711,39.0,147.0
6712,39.0,147.0
6713,39.0,146.0
6714,40.0,145.0
6715,39.0,144.0
6716,40.0,143.0
6717,38.0,142.0
6718,38.0,139.0
6719,38.0,138.0
6720,38.0,141.0
6721,38.0,144.0
6722,39.0,148.0
6723,39.0,147.0
6724,40.0,146.0
6725,38.0,145.0
6726,39.0,146.0
6727,38.0,146.0
6728,38.0,146.0
6729,37.0,146.0
6730,38.0,144.0
6731,38.0,144.0
6732,39.0,142.0
6733,38.0,141.0
6734,38.0,139.0
6735,37.0,137.0
6736,37.0,138.0
6737,38.0,141.0
6738,39.0,145.0
6739,39.0,146.0
6740,39.0,145.0
6741,39.0,143.0
6742,38.0,145.0
6743,38.0,145.0
6744,37.0,145.0
6745,37.0,145.0
6746,37.0,145.0
6747,37.0,143.0
6748,36.0,142.0
6749,36.0,141.0
6750,36.0,139.0
6751,35.0,137.0
6752,35.0,136.0
6753,35.0,138.0
6754,35.0,141.0
6755,37.0,145.0
6756,36.0,146.0
6757,35.0,144.0
6758,35.0,143.0
6759,35.0,144.0
6760,35.0,145.0
6761,35.0,145.0
6762,36.0,143.0
6763,37.0,143.0
6764,39.0,141.0
6765,40.0,141.0
6766,41.0,139.0
6767,42.0,138.0
6768,41.0,134.0
6769,42.0,135.0
6770,42.0,137.0
6771,42.0,141.0
6772,42.0,143.0
6773,42.0,144.0
6774,43.0,141.0
6775,42.0,142.0
6776,42.0,142.0
6777,41.0,143.0
6778,41.0,143.0
6779,41.0,142.0
6780,41.0,142.0
6781,42.0,140.0
6782,41.0,139.0
6783,42.0,138.0
6784,41.0,135.0
6785,40.0,134.0
6786,40.0,133.0
6787,41.0,136.0
6788,42.0,139.0
6789,43.0,142.0
6790,42.0,141.0
6791,42.0,138.0
6792,42.0,139.0
6793,41.0,140.0
6794,40.0,140.0
6795,40.0,139.0
6796,41.0,139.0
6797,40.0,137.0
6798,41.0,136.0
6799,41.0,135.0
6800,40.0,134.0
6801,39.0,131.0
6802,39.0,130.0
6803,39.0,132.0
6804,41.0,136.0
6805,41.0,139.0
6806,41.0,140.0
6807,41.0,139.0
6808,41.0,138.0
6809,41.0,138.0
6810,40.0,139.0
6811,40.0,139.0
6812,39.0,138.0
6813,40.0,137.0
6814,40.0,136.0
6815,40.0,136.0
6816,40.0,134.0
6817,40.0,132.0
6818,40.0,131.0
6819,39.0,130.0
6820,39.0,132.0
6821,40.0,136.0
6822,40.0,138.0
6823,40.0,138.0
6824,41.0,135.0
6825,40.0,136.0
6826,39.0,137.0
6827,38.0,137.0
6828,39.0,137.0
6829,39.0,137.0
6830,39.0,135.0
6831,39.0,134.0
6832,41.0,133.0
6833,40.0,132.0
6834,40.0,129.0
6835,39.0,128.0
6836,39.0,129.0
6837,39.0,132.0
6838,39.0,136.0
6839,40.0,137.0
6840,40.0,136.0
6841,40.0,134.0
6842,40.0,136.0
6843,39.0,135.0
6844,38.0,135.0
6845,39.0,135.0
6846,39.0,135.0
6847,39.0,133.0
6848,38.0,133.0
6849,39.0,131.0
6850,39.0,129.0
6851,38.0,127.0
6852,38.0,127.0
6853,38.0,129.0
6854,39.0,132.0
6855,39.0,136.0
6856,39.0,137.0
6857,40.0,133.0
6858,41.0,133.0
6859,40.0,135.0
6860,38.0,135.0
6861,38.0,135.0
6862,39.0,134.0
6863,39.0,133.0
6864,40.0,133.0
6865,41.0,132.0
6866,42.0,130.0
6867,41.0,129.0
6868,42.0,126.0
6869,41.0,126.0
6870,40.0,128.0
6871,41.0,131.0
6872,42.0,133.0
6873,42.0,134.0
6874,42.0,132.0
6875,42.0,132.0
6876,41.0,132.0
6877,41.0,132.0
6878,40.0,132.0
6879,41.0,132.0
6880,42.0,130.0
6881,42.0,129.0
6882,43.0,128.0
6883,44.0,127.0
6884,43.0,125.0
6885,42.0,123.0
6886,42.0,125.0
6887,43.0,129.0
6888,44.0,132.0
6889,43.0,135.0
6890,44.0,134.0
6891,44.0,132.0
6892,43.0,132.0
6893,43.0,133.0
6894,42.0,132.0
6895,41.0,134.0
6896,43.0,133.0
6897,42.0,132.0
6898,41.0,131.0
6899,41.0,129.0
6900,40.0,127.0
6901,39.0,126.0
6902,39.0,125.0
6903,39.0,126.0
6904,40.0,130.0
6905,40.0,132.0
6906,42.0,133.0
6907,41.0,131.0
6908,42.0,132.0
6909,41.0,133.0
6910,40.0,133.0
6911,39.0,133.0
6912,39.0,133.0
6913,40.0,132.0
6914,41.0,131.0
6915,41.0,129.0
6916,42.0,128.0
6917,42.0,127.0
6918,42.0,124.0
6919,41.0,125.0
6920,42.0,128.0
6921,42.0,131.0
6922,43.0,134.0
6923,42.0,133.0
6924,43.0,132.0
6925,41.0,132.0
6926,41.0,133.0
6927,40.0,133.0
6928,40.0,132.0
6929,41.0,132.0
6930,41.0,130.0
6931,41.0,131.0
6932,42.0,128.0
6933,42.0,127.0
6934,41.0,125.0
6935,42.0,124.0
6936,40.0,124.0
6937,41.0,129.0
6938,42.0,132.0
6939,42.0,133.0
6940,42.0,132.0
6941,42.0,131.0
6942,41.0,131.0
6943,41.0,132.0
6944,40.0,132.0
6945,40.0,132.0
6946,40.0,132.0
6947,40.0,130.0
6948,40.0,129.0
6949,40.0,128.0
6950,41.0,127.0
6951,39.0,124.0
6952,39.0,124.0
6953,39.0,127.0
6954,40.0,131.0
6955,39.0,134.0
6956,39.0,135.0
6957,39.0,132.0
6958,39.0,132.0
6959,39.0,134.0
6960,39.0,135.0
6961,38.0,134.0
6962,38.0,134.0
6963,39.0,132.0
6964,40.0,132.0
6965,41.0,131.0
6966,42.0,130.0
6967,43.0,127.0
6968,42.0,126.0
6969,42.0,127.0
6970,42.0,131.0
6971,42.0,135.0
6972,43.0,137.0
6973,43.0,137.0
6974,43.0,135.0
6975,45.0,136.0
6976,44.0,137.0
6977,43.0,137.0
6978,43.0,138.0
6979,42.0,138.0
6980,42.0,137.0
6981,41.0,136.0
6982,41.0,135.0
6983,41.0,134.0
6984,40.0,131.0
6985,40.0,131.0
6986,40.0,133.0
6987,40.0,137.0
6988,41.0,141.0
6989,42.0,143.0
6990,41.0,142.0
6991,40.0,140.0
6992,41.0,141.0
6993,40.0,142.0
6994,39.0,143.0
6995,39.0,142.0
6996,39.0,142.0
6997,40.0,142.0
6998,40.0,141.0
6999,40.0,140.0
7000,39.0,138.0
7001,38.0,135.0
7002,39.0,135.0
7003,40.0,138.0
7004,40.0,142.0
7005,40.0,145.0
7006,40.0,145.0
7007,41.0,144.0
7008,41.0,144.0
7009,41.0,144.0
7010,40.0,145.0
7011,38.0,144.0
7012,38.0,144.0
7013,38.0,144.0
7014,40.0,143.0
7015,41.0,142.0
7016,41.0,140.0
7017,42.0,139.0
7018,41.0,136.0
7019,42.0,137.0
7020,41.0,141.0
7021,41.0,144.0
7022,42.0,146.0
7023,42.0,145.0
7024,42.0,143.0
7025,42.0,144.0
7026,41.0,145.0
7027,40.0,145.0
7028,40.0,145.0
7029,40.0,144.0
7030,41.0,144.0
7031,40.0,143.0
7032,42.0,140.0
7033,41.0,139.0
7034,42.0,137.0
7035,42.0,135.0
7036,40.0,138.0
7037,42.0,141.0
7038,42.0,145.0
7039,43.0,146.0
7040,44.0,145.0
7041,44.0,143.0
7042,45.0,144.0
7043,43.0,144.0
7044,43.0,145.0
7045,42.0,144.0
7046,41.0,144.0
7047,40.0,143.0
7048,39.0,142.0
7049,39.0,140.0
7050,38.0,138.0
7051,37.0,136.0
7052,37.0,136.0
7053,37.0,138.0
7054,37.0,142.0
7055,38.0,145.0
7056,38.0,145.0
7057,39.0,143.0
7058,38.0,143.0
7059,38.0,144.0
7060,38.0,144.0
7061,37.0,144.0
7062,37.0,143.0
7063,38.0,142.0
7064,39.0,141.0
7065,41.0,140.0
7066,42.0,138.0
7067,43.0,137.0
7068,45.0,135.0
7069,45.0,135.0
7070,44.0,138.0
7071,43.0,142.0
7072,45.0,145.0
7073,44.0,144.0
7074,45.0,141.0
7075,45.0,143.0
7076,45.0,144.0
7077,45.0,144.0
7078,43.0,144.0
7079,43.0,143.0
7080,42.0,142.0
7081,43.0,141.0
7082,43.0,140.0
7083,43.0,138.0
7084,43.0,136.0
7085,43.0,135.0
7086,42.0,137.0
7087,43.0,141.0
7088,44.0,144.0
7089,43.0,145.0
7090,44.0,143.0
7091,44.0,142.0
7092,44.0,143.0
7093,44.0,143.0
7094,42.0,143.0
7095,42.0,143.0
7096,42.0,142.0
7097,42.0,142.0
7098,44.0,141.0
7099,45.0,139.0
7100,45.0,137.0
7101,44.0,134.0
7102,43.0,134.0
7103,44.0,138.0
7104,44.0,142.0
7105,44.0,145.0
7106,44.0,146.0
7107,46.0,143.0
7108,46.0,143.0
7109,45.0,144.0
7110,46.0,145.0
7111,44.0,145.0
7112,43.0,145.0
7113,43.0,144.0
7114,42.0,143.0
7115,42.0,142.0
7116,43.0,140.0
7117,42.0,138.0
7118,42.0,137.0
7119,41.0,138.0
7120,41.0,141.0
7121,43.0,145.0
7122,42.0,147.0
7123,44.0,147.0
7124,44.0,144.0
7125,45.0,145.0
7126,44.0,147.0
7127,44.0,146.0
7128,43.0,147.0
7129,42.0,147.0
7130,42.0,145.0
7131,42.0,144.0
7132,44.0,143.0
7133,44.0,142.0
7134,45.0,139.0
7135,45.0,139.0
7136,45.0,140.0
7137,44.0,143.0
7138,45.0,147.0
7139,46.0,148.0
7140,46.0,147.0
7141,47.0,145.0
7142,47.0,147.0
7143,47.0,147.0
7144,46.0,147.0
7145,45.0,147.0
7146,45.0,146.0
7147,46.0,145.0
7148,46.0,143.0
7149,48.0,143.0
7150,50.0,141.0
7151,50.0,138.0
7152,51.0,137.0
7153,52.0,142.0
7154,50.0,144.0
7155,50.0,147.0
7156,51.0,147.0
7157,52.0,145.0
7158,52.0,144.0
7159,52.0,145.0
7160,52.0,146.0
7161,51.0,146.0
7162,50.0,145.0
7163,50.0,144.0
7164,50.0,143.0
7165,51.0,143.0
7166,51.0,140.0
7167,53.0,138.0
7168,51.0,136.0
7169,52.0,137.0
7170,51.0,140.0
7171,51.0,145.0
7172,52.0,145.0
7173,52.0,145.0
7174,53.0,142.0
7175,53.0,143.0
7176,53.0,144.0
7177,52.0,144.0
7178,50.0,144.0
7179,49.0,143.0
7180,49.0,141.0
7181,48.0,141.0
7182,47.0,140.0
7183,45.0,139.0
7184,44.0,134.0
7185,44.0,134.0
7186,44.0,136.0
7187,44.0,140.0
7188,45.0,142.0
7189,46.0,144.0
7190,44.0,141.0
7191,46.0,140.0
7192,47.0,142.0
7193,45.0,141.0
7194,43.0,141.0
7195,43.0,142.0
7196,43.0,140.0
7197,44.0,140.0
7198,46.0,138.0
7199,48.0,136.0
7200,50.0,135.0
7201,51.0,132.0
7202,52.0,132.0
7203,51.0,134.0
7204,52.0,138.0
7205,56.0,141.0
7206,58.0,142.0
7207,60.0,138.0
7208,62.0,139.0
7209,63.0,139.0
7210,63.0,139.0
7211,62.0,139.0
7212,61.0,139.0
7213,60.0,138.0
7214,60.0,136.0
7215,61.0,135.0
7216,62.0,134.0
7217,63.0,131.0
7218,64.0,130.0
7219,64.0,130.0
7220,64.0,133.0
7221,64.0,138.0
7222,63.0,139.0
7223,63.0,138.0
7224,64.0,135.0
7225,65.0,136.0
7226,63.0,137.0
7227,63.0,138.0
7228,61.0,137.0
7229,61.0,136.0
7230,60.0,136.0
7231,61.0,134.0
7232,61.0,133.0
7233,62.0,131.0
7234,64.0,128.0
7235,65.0,128.0
7236,65.0,129.0
7237,64.0,133.0
7238,63.0,136.0
7239,63.0,136.0
7240,63.0,134.0
7241,64.0,133.0
7242,64.0,134.0
7243,64.0,134.0
7244,62.0,134.0
7245,61.0,133.0
7246,60.0,133.0
7247,58.0,131.0
7248,58.0,130.0
7249,59.0,129.0
7250,60.0,127.0
7251,60.0,125.0
7252,59.0,125.0
7253,57.0,127.0
7254,58.0,130.0
7255,58.0,132.0
7256,59.0,132.0
7257,60.0,128.0
7258,60.0,129.0
7259,61.0,130.0
7260,59.0,130.0
7261,58.0,130.0
7262,57.0,129.0
7263,57.0,127.0
7264,56.0,126.0
7265,56.0,126.0
7266,56.0,124.0
7267,58.0,123.0
7268,58.0,120.0
7269,59.0,120.0
7270,58.0,123.0
7271,57.0,125.0
7272,57.0,127.0
7273,58.0,125.0
7274,58.0,123.0
7275,59.0,124.0
7276,59.0,125.0
7277,59.0,125.0
7278,61.0,124.0
7279,61.0,123.0
7280,61.0,122.0
7281,61.0,121.0
7282,60.0,120.0
7283,59.0,117.0
7284,59.0,116.0
7285,59.0,115.0
7286,60.0,116.0
7287,61.0,120.0
7288,63.0,122.0
7289,65.0,123.0
7290,66.0,121.0
7291,67.0,120.0
7292,68.0,121.0
