Sample,A0,A1,A2,A3
0,535.0,311.0,200.0,221.0
1,540.0,312.0,199.0,210.0
2,545.0,312.0,201.0,204.0
3,549.0,311.0,204.0,202.0
4,552.0,308.0,206.0,203.0
5,553.0,306.0,208.0,204.0
6,545.0,301.0,207.0,204.0
7,549.0,299.0,202.0,203.0
8,554.0,302.0,203.0,202.0
9,557.0,309.0,205.0,203.0
10,558.0,315.0,208.0,205.0
11,557.0,318.0,210.0,206.0
12,553.0,315.0,210.0,207.0
13,549.0,309.0,209.0,206.0
14,539.0,308.0,205.0,204.0
15,533.0,311.0,200.0,200.0
16,537.0,313.0,197.0,197.0
17,543.0,313.0,197.0,196.0
18,548.0,312.0,201.0,197.0
19,551.0,311.0,204.0,199.0
20,552.0,308.0,206.0,201.0
21,546.0,305.0,206.0,202.0
22,547.0,300.0,201.0,200.0
23,551.0,301.0,201.0,199.0
24,556.0,307.0,203.0,201.0
25,558.0,315.0,206.0,202.0
26,557.0,319.0,208.0,205.0
27,554.0,318.0,210.0,206.0
28,551.0,312.0,210.0,206.0
29,541.0,309.0,206.0,204.0
30,534.0,312.0,202.0,201.0
31,535.0,313.0,198.0,198.0
32,540.0,314.0,197.0,196.0
33,545.0,314.0,199.0,196.0
34,550.0,312.0,202.0,197.0
35,552.0,310.0,203.0,199.0
36,550.0,307.0,202.0,199.0
37,545.0,303.0,198.0,198.0
38,550.0,301.0,198.0,197.0
39,554.0,306.0,199.0,197.0
40,557.0,313.0,203.0,199.0
41,556.0,319.0,205.0,201.0
42,555.0,318.0,206.0,202.0
43,552.0,314.0,205.0,202.0
44,546.0,310.0,201.0,200.0
45,535.0,312.0,198.0,198.0
46,534.0,313.0,194.0,195.0
47,539.0,314.0,196.0,194.0
48,543.0,313.0,197.0,194.0
49,549.0,312.0,201.0,196.0
50,551.0,310.0,203.0,198.0
51,552.0,307.0,206.0,201.0
52,544.0,304.0,205.0,201.0
53,549.0,300.0,201.0,200.0
54,553.0,304.0,200.0,199.0
55,556.0,311.0,204.0,200.0
56,556.0,317.0,206.0,202.0
57,555.0,319.0,208.0,204.0
58,553.0,317.0,207.0,204.0
59,548.0,310.0,205.0,203.0
60,537.0,309.0,202.0,201.0
61,533.0,312.0,197.0,198.0
62,537.0,314.0,196.0,195.0
63,543.0,315.0,197.0,195.0
64,547.0,314.0,200.0,196.0
65,551.0,312.0,203.0,198.0
66,552.0,309.0,205.0,200.0
67,545.0,306.0,205.0,201.0
68,546.0,301.0,201.0,199.0
69,551.0,302.0,200.0,199.0
70,556.0,309.0,202.0,200.0
71,556.0,315.0,205.0,201.0
72,555.0,319.0,207.0,203.0
73,554.0,318.0,208.0,204.0
74,550.0,312.0,206.0,203.0
75,542.0,309.0,202.0,201.0
76,533.0,312.0,198.0,199.0
77,535.0,313.0,195.0,196.0
78,540.0,314.0,195.0,195.0
79,545.0,313.0,197.0,195.0
80,551.0,312.0,202.0,197.0
81,552.0,310.0,204.0,199.0
82,549.0,307.0,204.0,200.0
83,545.0,302.0,201.0,199.0
84,550.0,301.0,200.0,198.0
85,554.0,306.0,201.0,198.0
86,556.0,313.0,203.0,200.0
87,557.0,318.0,207.0,202.0
88,555.0,318.0,209.0,205.0
89,552.0,315.0,208.0,205.0
90,544.0,309.0,206.0,203.0
91,534.0,311.0,201.0,200.0
92,533.0,313.0,198.0,198.0
93,539.0,314.0,197.0,196.0
94,544.0,314.0,199.0,195.0
95,549.0,314.0,200.0,197.0
96,552.0,311.0,202.0,198.0
97,551.0,308.0,203.0,198.0
98,544.0,304.0,199.0,197.0
99,548.0,300.0,197.0,196.0
100,553.0,305.0,197.0,196.0
101,556.0,312.0,201.0,197.0
102,557.0,317.0,203.0,199.0
103,555.0,319.0,205.0,200.0
104,551.0,316.0,205.0,201.0
105,547.0,310.0,202.0,200.0
106,537.0,310.0,198.0,197.0
107,533.0,313.0,194.0,195.0
108,538.0,314.0,194.0,193.0
109,542.0,314.0,196.0,193.0
110,547.0,313.0,200.0,194.0
111,550.0,311.0,202.0,197.0
112,552.0,308.0,203.0,198.0
113,545.0,305.0,202.0,199.0
114,547.0,301.0,200.0,198.0
115,551.0,302.0,199.0,197.0
116,555.0,309.0,202.0,199.0
117,556.0,316.0,205.0,200.0
118,556.0,319.0,206.0,202.0
119,553.0,317.0,207.0,203.0
120,549.0,311.0,205.0,203.0
121,540.0,309.0,201.0,200.0
122,533.0,311.0,198.0,197.0
123,536.0,313.0,196.0,195.0
124,541.0,314.0,196.0,194.0
125,546.0,312.0,198.0,195.0
126,550.0,311.0,202.0,197.0
127,552.0,310.0,204.0,199.0
128,548.0,306.0,204.0,200.0
129,545.0,301.0,200.0,198.0
130,550.0,301.0,199.0,198.0
131,555.0,307.0,200.0,197.0
132,557.0,313.0,202.0,199.0
133,556.0,318.0,205.0,200.0
134,554.0,318.0,206.0,202.0
135,551.0,314.0,205.0,202.0
136,545.0,309.0,201.0,200.0
137,535.0,312.0,197.0,197.0
138,534.0,313.0,194.0,194.0
139,539.0,314.0,193.0,192.0
140,544.0,313.0,195.0,192.0
141,549.0,312.0,198.0,193.0
142,552.0,310.0,201.0,195.0
143,552.0,308.0,201.0,197.0
144,545.0,303.0,198.0,197.0
145,549.0,300.0,196.0,195.0
146,554.0,305.0,196.0,195.0
147,556.0,312.0,199.0,196.0
148,556.0,317.0,202.0,198.0
149,556.0,318.0,204.0,200.0
150,552.0,315.0,204.0,200.0
151,548.0,309.0,201.0,199.0
152,537.0,309.0,197.0,196.0
153,533.0,312.0,194.0,193.0
154,537.0,314.0,192.0,192.0
155,543.0,314.0,194.0,192.0
156,547.0,313.0,198.0,194.0
157,551.0,311.0,201.0,196.0
158,552.0,308.0,204.0,198.0
159,545.0,305.0,204.0,200.0
160,547.0,300.0,200.0,198.0
161,552.0,302.0,199.0,198.0
162,556.0,310.0,201.0,198.0
163,557.0,315.0,205.0,200.0
164,556.0,318.0,206.0,202.0
165,553.0,317.0,206.0,202.0
166,550.0,311.0,205.0,203.0
167,540.0,309.0,200.0,200.0
168,533.0,312.0,197.0,197.0
169,536.0,313.0,194.0,195.0
170,541.0,313.0,195.0,194.0
171,545.0,313.0,197.0,194.0
172,550.0,311.0,200.0,196.0
173,552.0,309.0,203.0,198.0
174,548.0,305.0,202.0,198.0
175,545.0,301.0,199.0,197.0
176,550.0,300.0,197.0,196.0
177,555.0,306.0,200.0,198.0
178,557.0,313.0,202.0,199.0
179,557.0,319.0,206.0,201.0
180,554.0,319.0,206.0,203.0
181,551.0,315.0,205.0,202.0
182,544.0,309.0,203.0,201.0
183,534.0,311.0,199.0,198.0
184,534.0,313.0,195.0,195.0
185,539.0,314.0,195.0,193.0
186,545.0,314.0,196.0,194.0
187,550.0,314.0,202.0,196.0
188,552.0,312.0,205.0,199.0
189,550.0,308.0,207.0,201.0
190,544.0,303.0,204.0,201.0
191,548.0,301.0,201.0,200.0
192,553.0,304.0,201.0,200.0
193,556.0,311.0,205.0,200.0
194,556.0,317.0,208.0,203.0
195,554.0,319.0,210.0,204.0
196,552.0,315.0,209.0,205.0
197,547.0,309.0,208.0,204.0
198,536.0,310.0,203.0,202.0
199,534.0,312.0,198.0,199.0
200,537.0,315.0,197.0,197.0
201,542.0,314.0,197.0,196.0
202,547.0,313.0,200.0,196.0
203,550.0,311.0,201.0,197.0
204,552.0,309.0,201.0,197.0
205,544.0,305.0,197.0,196.0
206,547.0,301.0,194.0,194.0
207,552.0,302.0,195.0,194.0
208,555.0,309.0,198.0,195.0
209,556.0,315.0,201.0,196.0
210,556.0,319.0,203.0,198.0
211,553.0,317.0,203.0,199.0
212,550.0,311.0,201.0,199.0
213,539.0,309.0,197.0,196.0
214,533.0,312.0,193.0,193.0
215,536.0,313.0,192.0,191.0
216,541.0,314.0,193.0,191.0
217,545.0,313.0,197.0,192.0
218,550.0,311.0,202.0,196.0
219,551.0,309.0,205.0,199.0
220,548.0,306.0,206.0,201.0
221,545.0,301.0,203.0,201.0
222,550.0,301.0,201.0,200.0
223,554.0,307.0,202.0,200.0
224,556.0,314.0,205.0,201.0
225,556.0,318.0,207.0,203.0
226,554.0,318.0,208.0,205.0
227,551.0,313.0,207.0,204.0
228,544.0,308.0,204.0,203.0
229,534.0,310.0,201.0,200.0
230,533.0,312.0,196.0,196.0
231,539.0,313.0,195.0,194.0
232,544.0,313.0,197.0,194.0
233,549.0,312.0,200.0,196.0
234,551.0,310.0,202.0,198.0
235,551.0,306.0,202.0,198.0
236,543.0,301.0,199.0,196.0
237,548.0,299.0,195.0,195.0
238,553.0,303.0,198.0,196.0
239,556.0,310.0,200.0,197.0
240,556.0,316.0,203.0,199.0
241,555.0,317.0,204.0,200.0
242,551.0,315.0,204.0,200.0
243,546.0,308.0,201.0,199.0
244,536.0,309.0,197.0,196.0
245,532.0,311.0,193.0,194.0
246,537.0,312.0,193.0,192.0
247,542.0,313.0,194.0,191.0
248,548.0,312.0,198.0,194.0
249,551.0,311.0,202.0,197.0
250,551.0,307.0,205.0,199.0
251,545.0,304.0,204.0,200.0
252,547.0,299.0,200.0,198.0
253,551.0,302.0,198.0,197.0
254,556.0,308.0,201.0,199.0
255,556.0,315.0,204.0,201.0
256,555.0,318.0,207.0,202.0
257,553.0,316.0,208.0,203.0
258,549.0,310.0,206.0,203.0
259,540.0,308.0,202.0,201.0
260,533.0,312.0,198.0,198.0
261,536.0,313.0,195.0,195.0
262,541.0,313.0,195.0,194.0
263,546.0,312.0,197.0,194.0
264,551.0,311.0,202.0,196.0
265,552.0,309.0,204.0,199.0
266,548.0,306.0,205.0,200.0
267,545.0,300.0,202.0,200.0
268,550.0,300.0,199.0,199.0
269,554.0,306.0,201.0,199.0
270,556.0,314.0,205.0,200.0
271,557.0,317.0,208.0,203.0
272,554.0,318.0,209.0,205.0
273,551.0,313.0,208.0,205.0
274,544.0,308.0,204.0,203.0
275,534.0,310.0,201.0,201.0
276,535.0,312.0,197.0,198.0
277,540.0,314.0,197.0,196.0
278,544.0,314.0,199.0,196.0
279,549.0,313.0,202.0,198.0
280,552.0,310.0,205.0,200.0
281,551.0,307.0,206.0,202.0
282,545.0,302.0,203.0,201.0
283,549.0,299.0,201.0,200.0
284,554.0,305.0,201.0,200.0
285,556.0,312.0,204.0,201.0
286,557.0,317.0,207.0,203.0
287,555.0,318.0,208.0,204.0
288,551.0,315.0,209.0,205.0
289,548.0,308.0,206.0,203.0
290,537.0,309.0,201.0,201.0
291,533.0,311.0,199.0,198.0
292,538.0,313.0,197.0,196.0
293,544.0,313.0,198.0,195.0
294,548.0,312.0,202.0,198.0
295,551.0,310.0,204.0,199.0
296,552.0,308.0,206.0,201.0
297,545.0,303.0,205.0,202.0
298,547.0,299.0,203.0,201.0
299,552.0,302.0,201.0,200.0
300,556.0,308.0,204.0,201.0
301,557.0,314.0,207.0,203.0
302,556.0,318.0,210.0,205.0
303,552.0,316.0,210.0,205.0
304,550.0,309.0,209.0,205.0
305,540.0,307.0,205.0,203.0
306,533.0,310.0,201.0,200.0
307,537.0,311.0,199.0,198.0
308,542.0,313.0,199.0,197.0
309,547.0,313.0,203.0,198.0
310,550.0,310.0,206.0,201.0
311,552.0,309.0,209.0,204.0
312,548.0,305.0,209.0,205.0
313,546.0,300.0,206.0,204.0
314,551.0,300.0,204.0,203.0
315,555.0,306.0,206.0,204.0
316,557.0,313.0,210.0,205.0
317,557.0,317.0,211.0,208.0
318,554.0,317.0,212.0,209.0
319,551.0,312.0,212.0,209.0
320,544.0,308.0,208.0,207.0
321,535.0,310.0,204.0,204.0
322,535.0,311.0,200.0,200.0
323,540.0,312.0,200.0,199.0
324,545.0,313.0,201.0,198.0
325,549.0,311.0,204.0,200.0
326,552.0,309.0,206.0,201.0
327,551.0,306.0,206.0,203.0
328,544.0,302.0,203.0,202.0
329,549.0,299.0,200.0,200.0
330,554.0,304.0,201.0,200.0
331,556.0,310.0,204.0,200.0
332,556.0,316.0,208.0,203.0
333,556.0,317.0,208.0,204.0
334,553.0,314.0,208.0,204.0
335,547.0,308.0,205.0,203.0
336,536.0,308.0,200.0,200.0
337,534.0,312.0,197.0,197.0
338,538.0,313.0,196.0,195.0
339,543.0,313.0,197.0,194.0
340,548.0,311.0,200.0,195.0
341,551.0,309.0,202.0,197.0
342,552.0,307.0,204.0,199.0
343,545.0,304.0,203.0,199.0
344,546.0,299.0,199.0,198.0
345,552.0,301.0,198.0,197.0
346,555.0,307.0,200.0,198.0
347,557.0,314.0,203.0,199.0
348,556.0,318.0,206.0,201.0
349,554.0,316.0,206.0,202.0
350,550.0,310.0,205.0,202.0
351,540.0,308.0,200.0,199.0
352,533.0,311.0,197.0,196.0
353,536.0,313.0,195.0,195.0
354,541.0,313.0,195.0,194.0
355,546.0,312.0,200.0,196.0
356,550.0,310.0,204.0,199.0
357,552.0,308.0,207.0,202.0
358,548.0,306.0,208.0,203.0
359,546.0,300.0,204.0,203.0
360,550.0,300.0,203.0,202.0
361,555.0,305.0,204.0,202.0
362,557.0,312.0,207.0,204.0
363,557.0,317.0,210.0,206.0
364,555.0,317.0,211.0,207.0
365,552.0,313.0,211.0,208.0
366,545.0,308.0,208.0,206.0
367,534.0,309.0,203.0,203.0
368,534.0,311.0,200.0,200.0
369,539.0,312.0,200.0,199.0
370,544.0,313.0,201.0,198.0
371,549.0,311.0,204.0,200.0
372,552.0,309.0,206.0,202.0
373,551.0,307.0,207.0,203.0
374,544.0,302.0,204.0,202.0
375,548.0,299.0,200.0,200.0
376,553.0,303.0,202.0,200.0
377,556.0,310.0,204.0,201.0
378,556.0,315.0,208.0,203.0
379,555.0,317.0,208.0,205.0
380,553.0,314.0,209.0,205.0
381,547.0,307.0,207.0,204.0
382,536.0,307.0,202.0,202.0
383,533.0,310.0,199.0,199.0
384,538.0,311.0,198.0,197.0
385,542.0,312.0,198.0,197.0
386,548.0,311.0,202.0,198.0
387,551.0,309.0,206.0,201.0
388,552.0,306.0,207.0,203.0
389,544.0,303.0,207.0,203.0
390,547.0,298.0,202.0,201.0
391,551.0,299.0,201.0,200.0
392,555.0,305.0,205.0,201.0
393,556.0,312.0,208.0,204.0
394,555.0,316.0,210.0,206.0
395,553.0,315.0,210.0,207.0
396,551.0,309.0,209.0,207.0
397,542.0,306.0,205.0,204.0
398,534.0,309.0,200.0,201.0
399,536.0,312.0,198.0,198.0
400,541.0,312.0,198.0,198.0
401,545.0,311.0,202.0,198.0
402,549.0,310.0,206.0,201.0
403,551.0,307.0,209.0,204.0
404,548.0,304.0,209.0,205.0
405,545.0,299.0,205.0,204.0
406,550.0,298.0,202.0,203.0
407,555.0,304.0,204.0,203.0
408,556.0,310.0,207.0,204.0
409,557.0,315.0,210.0,206.0
410,554.0,316.0,211.0,207.0
411,551.0,310.0,211.0,207.0
412,545.0,305.0,208.0,206.0
413,534.0,307.0,203.0,203.0
414,534.0,310.0,200.0,200.0
415,539.0,311.0,199.0,198.0
416,544.0,310.0,200.0,198.0
417,549.0,309.0,203.0,199.0
418,551.0,307.0,206.0,201.0
419,551.0,304.0,207.0,202.0
420,544.0,301.0,204.0,202.0
421,549.0,297.0,201.0,200.0
422,553.0,301.0,202.0,200.0
423,556.0,308.0,205.0,202.0
424,556.0,314.0,208.0,203.0
425,555.0,315.0,210.0,205.0
426,552.0,313.0,210.0,206.0
427,548.0,306.0,208.0,205.0
428,537.0,306.0,203.0,203.0
429,533.0,309.0,199.0,199.0
430,537.0,310.0,198.0,198.0
431,543.0,310.0,200.0,198.0
432,547.0,310.0,203.0,199.0
433,550.0,308.0,205.0,200.0
434,552.0,305.0,204.0,201.0
435,545.0,302.0,201.0,200.0
436,547.0,297.0,199.0,198.0
437,552.0,298.0,199.0,198.0
438,556.0,306.0,202.0,199.0
439,556.0,312.0,205.0,201.0
440,556.0,315.0,207.0,202.0
441,553.0,313.0,206.0,203.0
442,550.0,307.0,204.0,202.0
443,540.0,305.0,201.0,199.0
444,533.0,308.0,196.0,196.0
445,536.0,309.0,194.0,194.0
446,541.0,311.0,196.0,193.0
447,545.0,309.0,199.0,194.0
448,550.0,308.0,202.0,196.0
449,552.0,305.0,202.0,197.0
450,549.0,303.0,202.0,198.0
451,546.0,297.0,199.0,197.0
452,550.0,297.0,197.0,196.0
453,555.0,303.0,199.0,197.0
454,556.0,310.0,202.0,199.0
455,556.0,315.0,204.0,200.0
456,555.0,315.0,205.0,202.0
457,551.0,311.0,203.0,201.0
458,545.0,305.0,200.0,200.0
459,535.0,308.0,196.0,197.0
460,535.0,310.0,193.0,194.0
461,539.0,311.0,192.0,192.0
462,544.0,311.0,196.0,192.0
463,548.0,309.0,199.0,194.0
464,551.0,307.0,202.0,196.0
465,551.0,305.0,204.0,199.0
466,544.0,300.0,203.0,199.0
467,548.0,297.0,199.0,198.0
468,553.0,301.0,199.0,198.0
469,556.0,308.0,202.0,199.0
470,556.0,313.0,205.0,201.0
471,555.0,315.0,207.0,203.0
472,552.0,312.0,206.0,203.0
473,548.0,306.0,204.0,202.0
474,537.0,307.0,200.0,200.0
475,533.0,309.0,197.0,197.0
476,537.0,310.0,195.0,195.0
477,542.0,311.0,196.0,194.0
478,547.0,309.0,199.0,195.0
479,551.0,307.0,202.0,197.0
480,552.0,305.0,204.0,200.0
481,545.0,302.0,203.0,200.0
482,546.0,296.0,200.0,199.0
483,551.0,299.0,199.0,198.0
484,555.0,305.0,202.0,199.0
485,556.0,311.0,205.0,200.0
486,556.0,315.0,206.0,202.0
487,553.0,314.0,207.0,203.0
488,550.0,307.0,206.0,203.0
489,540.0,305.0,202.0,201.0
490,533.0,308.0,199.0,198.0
491,535.0,310.0,197.0,196.0
492,541.0,310.0,197.0,194.0
493,546.0,310.0,199.0,195.0
494,551.0,308.0,203.0,198.0
495,553.0,306.0,207.0,201.0
496,549.0,304.0,207.0,203.0
497,544.0,297.0,204.0,202.0
498,550.0,297.0,202.0,200.0
499,554.0,302.0,203.0,201.0
500,556.0,309.0,207.0,203.0
501,557.0,314.0,209.0,205.0
502,555.0,314.0,210.0,206.0
503,550.0,309.0,210.0,206.0
504,543.0,304.0,207.0,205.0
505,534.0,306.0,203.0,201.0
506,534.0,308.0,199.0,199.0
507,540.0,308.0,198.0,197.0
508,544.0,309.0,200.0,197.0
509,549.0,307.0,203.0,200.0
510,551.0,305.0,207.0,202.0
511,551.0,303.0,208.0,203.0
512,544.0,298.0,206.0,203.0
513,548.0,295.0,203.0,201.0
514,553.0,299.0,204.0,201.0
515,556.0,306.0,207.0,203.0
516,556.0,312.0,211.0,205.0
517,555.0,314.0,211.0,207.0
518,553.0,311.0,212.0,208.0
519,547.0,304.0,209.0,207.0
520,536.0,305.0,205.0,204.0
521,533.0,308.0,201.0,201.0
522,537.0,309.0,199.0,199.0
523,542.0,309.0,200.0,198.0
524,547.0,308.0,202.0,199.0
525,551.0,306.0,205.0,200.0
526,552.0,304.0,205.0,201.0
527,545.0,300.0,204.0,201.0
528,546.0,296.0,200.0,199.0
529,551.0,298.0,200.0,199.0
530,555.0,305.0,204.0,200.0
531,556.0,310.0,206.0,202.0
532,555.0,314.0,209.0,204.0
533,553.0,313.0,209.0,205.0
534,550.0,307.0,208.0,205.0
535,541.0,305.0,203.0,203.0
536,533.0,307.0,199.0,199.0
537,536.0,310.0,197.0,197.0
538,540.0,309.0,197.0,195.0
539,545.0,309.0,200.0,196.0
540,551.0,307.0,205.0,199.0
541,552.0,305.0,207.0,201.0
542,549.0,302.0,208.0,204.0
543,545.0,297.0,206.0,203.0
544,550.0,296.0,203.0,201.0
545,554.0,302.0,204.0,201.0
546,556.0,309.0,207.0,204.0
547,555.0,313.0,209.0,206.0
548,554.0,315.0,212.0,207.0
549,551.0,309.0,211.0,208.0
550,545.0,305.0,207.0,206.0
551,535.0,307.0,203.0,203.0
552,534.0,310.0,200.0,200.0
553,538.0,310.0,200.0,198.0
554,543.0,309.0,201.0,198.0
555,548.0,308.0,203.0,199.0
556,551.0,307.0,207.0,201.0
557,552.0,304.0,209.0,204.0
558,544.0,300.0,207.0,204.0
559,548.0,296.0,203.0,203.0
560,553.0,300.0,203.0,202.0
561,556.0,307.0,207.0,203.0
562,557.0,312.0,209.0,206.0
563,556.0,315.0,210.0,206.0
564,553.0,313.0,210.0,207.0
565,548.0,306.0,208.0,206.0
566,537.0,306.0,204.0,203.0
567,532.0,308.0,200.0,200.0
568,537.0,310.0,198.0,198.0
569,543.0,310.0,199.0,196.0
570,547.0,309.0,201.0,197.0
571,551.0,308.0,204.0,199.0
572,552.0,305.0,207.0,201.0
573,545.0,301.0,206.0,203.0
574,547.0,296.0,202.0,201.0
575,551.0,299.0,201.0,200.0
576,555.0,304.0,204.0,200.0
577,557.0,311.0,207.0,203.0
578,556.0,315.0,209.0,204.0
579,553.0,314.0,210.0,205.0
580,550.0,308.0,208.0,205.0
581,541.0,305.0,205.0,203.0
582,533.0,307.0,201.0,200.0
583,535.0,309.0,198.0,197.0
584,540.0,311.0,198.0,197.0
585,545.0,310.0,201.0,198.0
586,549.0,308.0,205.0,200.0
587,551.0,306.0,208.0,203.0
588,550.0,304.0,209.0,204.0
589,544.0,298.0,205.0,203.0
590,549.0,297.0,202.0,202.0
591,554.0,302.0,204.0,202.0
592,557.0,309.0,207.0,204.0
593,556.0,314.0,210.0,205.0
594,555.0,315.0,211.0,207.0
595,552.0,310.0,210.0,207.0
596,546.0,305.0,208.0,206.0
597,534.0,306.0,204.0,203.0
598,533.0,309.0,200.0,199.0
599,538.0,310.0,197.0,196.0
600,542.0,309.0,198.0,196.0
601,548.0,308.0,201.0,197.0
602,551.0,307.0,204.0,199.0
603,552.0,303.0,206.0,202.0
604,544.0,300.0,203.0,201.0
605,547.0,296.0,200.0,200.0
606,553.0,299.0,201.0,199.0
607,556.0,307.0,203.0,200.0
608,557.0,312.0,205.0,202.0
609,555.0,315.0,208.0,203.0
610,552.0,312.0,208.0,204.0
611,548.0,306.0,206.0,204.0
612,537.0,305.0,201.0,201.0
613,533.0,309.0,198.0,197.0
614,537.0,310.0,195.0,195.0
615,541.0,310.0,196.0,194.0
616,547.0,310.0,199.0,195.0
617,551.0,308.0,202.0,197.0
618,552.0,306.0,204.0,199.0
619,546.0,302.0,204.0,200.0
620,546.0,297.0,200.0,199.0
621,551.0,299.0,199.0,198.0
622,556.0,305.0,201.0,198.0
623,556.0,312.0,204.0,200.0
624,556.0,315.0,206.0,201.0
625,553.0,315.0,206.0,202.0
626,550.0,309.0,206.0,203.0
627,541.0,305.0,202.0,201.0
628,534.0,308.0,197.0,198.0
629,535.0,311.0,195.0,195.0
630,540.0,311.0,195.0,193.0
631,545.0,310.0,197.0,193.0
632,549.0,309.0,201.0,196.0
633,552.0,306.0,203.0,198.0
634,549.0,304.0,204.0,201.0
635,545.0,300.0,202.0,200.0
636,549.0,298.0,200.0,199.0
637,555.0,303.0,202.0,199.0
638,556.0,310.0,205.0,201.0
639,556.0,315.0,208.0,204.0
640,554.0,315.0,209.0,205.0
641,552.0,310.0,208.0,205.0
642,545.0,305.0,206.0,203.0
643,535.0,308.0,202.0,201.0
644,533.0,310.0,198.0,198.0
645,539.0,310.0,198.0,197.0
646,544.0,310.0,199.0,197.0
647,548.0,310.0,203.0,198.0
648,551.0,307.0,204.0,200.0
649,551.0,304.0,204.0,201.0
650,544.0,300.0,201.0,200.0
651,548.0,296.0,198.0,198.0
652,552.0,300.0,199.0,198.0
653,556.0,307.0,202.0,199.0
654,556.0,313.0,205.0,201.0
655,554.0,315.0,208.0,202.0
656,552.0,312.0,207.0,204.0
657,548.0,306.0,205.0,203.0
658,537.0,305.0,201.0,200.0
659,532.0,309.0,197.0,197.0
660,537.0,310.0,195.0,195.0
661,542.0,310.0,196.0,194.0
662,547.0,310.0,199.0,195.0
663,550.0,307.0,203.0,197.0
664,552.0,305.0,204.0,200.0
665,545.0,302.0,204.0,200.0
666,546.0,296.0,201.0,199.0
667,551.0,298.0,199.0,198.0
668,555.0,304.0,200.0,198.0
669,556.0,311.0,204.0,200.0
670,556.0,315.0,206.0,202.0
671,553.0,313.0,206.0,203.0
672,550.0,307.0,204.0,202.0
673,541.0,305.0,200.0,200.0
674,534.0,308.0,197.0,197.0
675,535.0,309.0,195.0,195.0
676,540.0,310.0,196.0,194.0
677,546.0,310.0,199.0,195.0
678,549.0,308.0,203.0,198.0
679,551.0,306.0,206.0,200.0
680,549.0,303.0,206.0,202.0
681,544.0,298.0,203.0,201.0
682,549.0,297.0,202.0,199.0
683,553.0,302.0,202.0,200.0
684,556.0,309.0,205.0,202.0
685,557.0,315.0,207.0,203.0
686,554.0,314.0,210.0,205.0
687,551.0,310.0,208.0,205.0
688,546.0,306.0,206.0,204.0
689,535.0,307.0,202.0,202.0
690,533.0,309.0,200.0,198.0
691,538.0,310.0,197.0,196.0
692,544.0,309.0,197.0,196.0
693,548.0,308.0,201.0,197.0
694,552.0,307.0,203.0,200.0
695,552.0,304.0,207.0,202.0
696,544.0,300.0,205.0,202.0
697,549.0,297.0,201.0,201.0
698,553.0,300.0,201.0,200.0
699,555.0,307.0,203.0,201.0
700,557.0,312.0,207.0,203.0
701,556.0,316.0,208.0,205.0
702,553.0,312.0,209.0,206.0
703,548.0,306.0,207.0,205.0
704,537.0,306.0,204.0,202.0
705,533.0,308.0,199.0,199.0
706,537.0,310.0,197.0,197.0
707,542.0,310.0,198.0,196.0
708,547.0,309.0,201.0,197.0
709,550.0,308.0,204.0,199.0
710,552.0,305.0,206.0,201.0
711,545.0,302.0,205.0,202.0
712,546.0,297.0,202.0,200.0
713,551.0,298.0,201.0,199.0
714,556.0,304.0,204.0,201.0
715,556.0,310.0,207.0,203.0
716,556.0,314.0,209.0,205.0
717,553.0,313.0,210.0,206.0
718,550.0,307.0,209.0,206.0
719,542.0,304.0,205.0,204.0
720,533.0,307.0,201.0,201.0
721,535.0,309.0,198.0,198.0
722,540.0,309.0,198.0,197.0
723,544.0,309.0,201.0,197.0
724,550.0,308.0,203.0,199.0
725,551.0,305.0,205.0,201.0
726,549.0,302.0,206.0,202.0
727,545.0,297.0,202.0,201.0
728,549.0,296.0,199.0,200.0
729,553.0,300.0,201.0,200.0
730,556.0,307.0,205.0,201.0
731,556.0,312.0,207.0,203.0
732,554.0,313.0,208.0,204.0
733,551.0,309.0,208.0,204.0
734,546.0,303.0,205.0,203.0
735,535.0,306.0,199.0,201.0
736,533.0,308.0,196.0,197.0
737,538.0,309.0,196.0,194.0
738,542.0,308.0,197.0,194.0
739,548.0,307.0,201.0,196.0
740,551.0,305.0,203.0,199.0
741,552.0,302.0,207.0,202.0
742,544.0,299.0,205.0,202.0
743,548.0,294.0,202.0,201.0
744,553.0,298.0,202.0,201.0
745,556.0,305.0,204.0,201.0
746,557.0,310.0,207.0,203.0
747,556.0,313.0,209.0,205.0
748,552.0,311.0,209.0,207.0
749,548.0,304.0,207.0,205.0
750,538.0,304.0,203.0,202.0
751,533.0,306.0,199.0,199.0
752,536.0,308.0,198.0,197.0
753,541.0,308.0,198.0,197.0
754,546.0,307.0,203.0,198.0
755,550.0,306.0,206.0,201.0
756,551.0,303.0,208.0,203.0
757,546.0,300.0,207.0,204.0
758,546.0,294.0,204.0,203.0
759,550.0,296.0,204.0,202.0
760,554.0,302.0,206.0,203.0
761,556.0,308.0,208.0,204.0
762,556.0,312.0,211.0,206.0
763,553.0,312.0,212.0,208.0
764,550.0,306.0,210.0,207.0
765,542.0,302.0,207.0,205.0
766,533.0,306.0,202.0,202.0
767,534.0,307.0,200.0,199.0
768,539.0,308.0,199.0,198.0
769,545.0,308.0,201.0,198.0
770,549.0,306.0,204.0,200.0
771,552.0,304.0,204.0,201.0
772,550.0,301.0,204.0,200.0
773,544.0,296.0,199.0,198.0
774,549.0,294.0,198.0,197.0
775,554.0,300.0,200.0,197.0
776,556.0,306.0,203.0,199.0
777,556.0,311.0,206.0,201.0
778,555.0,312.0,206.0,203.0
779,551.0,307.0,206.0,203.0
780,546.0,302.0,203.0,202.0
781,535.0,304.0,199.0,199.0
782,533.0,307.0,196.0,196.0
783,538.0,308.0,196.0,195.0
784,543.0,308.0,198.0,195.0
785,548.0,307.0,204.0,198.0
786,551.0,304.0,207.0,201.0
787,551.0,301.0,209.0,204.0
788,544.0,299.0,209.0,204.0
789,547.0,294.0,205.0,204.0
790,552.0,297.0,203.0,203.0
791,556.0,304.0,206.0,204.0
792,556.0,311.0,210.0,206.0
793,555.0,313.0,212.0,207.0
794,553.0,310.0,211.0,208.0
795,548.0,303.0,209.0,207.0
796,538.0,303.0,205.0,204.0
797,532.0,307.0,200.0,200.0
798,536.0,307.0,198.0,198.0
799,541.0,308.0,198.0,196.0
800,546.0,308.0,199.0,197.0
801,551.0,306.0,203.0,199.0
802,552.0,304.0,204.0,200.0
803,546.0,300.0,204.0,200.0
804,546.0,294.0,199.0,198.0
805,551.0,295.0,198.0,197.0
806,555.0,302.0,201.0,198.0
807,557.0,308.0,204.0,200.0
808,557.0,313.0,206.0,203.0
809,554.0,312.0,208.0,203.0
810,550.0,306.0,207.0,203.0
811,542.0,303.0,202.0,202.0
812,533.0,306.0,198.0,199.0
813,535.0,307.0,195.0,196.0
814,540.0,308.0,195.0,194.0
815,545.0,307.0,198.0,195.0
816,550.0,306.0,203.0,197.0
817,551.0,304.0,206.0,200.0
818,550.0,302.0,208.0,203.0
819,544.0,297.0,206.0,203.0
820,549.0,295.0,202.0,201.0
821,554.0,300.0,203.0,201.0
822,556.0,306.0,206.0,202.0
823,557.0,312.0,208.0,204.0
824,555.0,313.0,209.0,205.0
825,552.0,308.0,210.0,206.0
826,546.0,303.0,208.0,205.0
827,536.0,304.0,203.0,203.0
828,533.0,307.0,199.0,199.0
829,538.0,307.0,198.0,197.0
830,543.0,307.0,199.0,197.0
831,548.0,305.0,201.0,198.0
832,551.0,304.0,204.0,200.0
833,552.0,301.0,205.0,200.0
834,544.0,298.0,203.0,200.0
835,547.0,293.0,201.0,199.0
836,553.0,296.0,201.0,199.0
837,555.0,303.0,204.0,201.0
838,556.0,309.0,206.0,202.0
839,556.0,311.0,208.0,204.0
840,553.0,310.0,208.0,205.0
841,548.0,303.0,206.0,204.0
842,539.0,302.0,203.0,201.0
843,533.0,306.0,198.0,198.0
844,537.0,308.0,196.0,196.0
845,542.0,307.0,197.0,195.0
846,547.0,306.0,199.0,196.0
847,551.0,304.0,202.0,197.0
848,552.0,302.0,202.0,198.0
849,547.0,300.0,199.0,197.0
850,546.0,294.0,195.0,196.0
851,551.0,294.0,196.0,195.0
852,555.0,300.0,198.0,195.0
853,556.0,307.0,201.0,197.0
854,557.0,311.0,203.0,198.0
855,554.0,310.0,203.0,199.0
856,551.0,305.0,202.0,199.0
857,543.0,302.0,199.0,197.0
858,534.0,304.0,194.0,194.0
859,535.0,306.0,191.0,192.0
860,539.0,307.0,193.0,191.0
861,545.0,307.0,196.0,192.0
862,549.0,305.0,199.0,194.0
863,552.0,303.0,201.0,196.0
864,550.0,300.0,200.0,197.0
865,544.0,296.0,197.0,195.0
866,549.0,293.0,194.0,194.0
867,554.0,298.0,196.0,194.0
868,556.0,305.0,199.0,195.0
869,556.0,310.0,202.0,198.0
870,555.0,311.0,203.0,199.0
871,552.0,308.0,202.0,199.0
872,547.0,302.0,199.0,197.0
873,536.0,303.0,195.0,194.0
874,533.0,306.0,192.0,192.0
875,538.0,307.0,192.0,191.0
876,543.0,307.0,194.0,191.0
877,548.0,306.0,199.0,193.0
878,551.0,303.0,203.0,197.0
879,552.0,301.0,205.0,200.0
880,544.0,297.0,205.0,200.0
881,547.0,293.0,200.0,199.0
882,552.0,296.0,200.0,198.0
883,555.0,303.0,203.0,200.0
884,556.0,309.0,205.0,202.0
885,556.0,311.0,207.0,203.0
886,553.0,309.0,208.0,204.0
887,549.0,304.0,206.0,203.0
888,539.0,302.0,202.0,202.0
889,533.0,305.0,199.0,199.0
890,536.0,306.0,196.0,196.0
891,541.0,307.0,196.0,195.0
892,546.0,306.0,198.0,195.0
893,551.0,304.0,203.0,197.0
894,552.0,302.0,204.0,200.0
895,547.0,298.0,205.0,201.0
896,546.0,293.0,202.0,201.0
897,551.0,294.0,200.0,200.0
898,555.0,300.0,202.0,200.0
899,557.0,307.0,206.0,202.0
900,556.0,311.0,207.0,203.0
901,555.0,311.0,209.0,205.0
902,551.0,306.0,208.0,205.0
903,544.0,302.0,205.0,203.0
904,533.0,305.0,201.0,200.0
905,535.0,306.0,197.0,197.0
906,540.0,307.0,197.0,196.0
907,544.0,307.0,199.0,196.0
908,549.0,306.0,201.0,198.0
909,552.0,304.0,204.0,200.0
910,551.0,301.0,205.0,200.0
911,544.0,297.0,201.0,199.0
912,549.0,294.0,199.0,198.0
913,554.0,298.0,201.0,199.0
914,557.0,306.0,204.0,201.0
915,557.0,312.0,207.0,203.0
916,556.0,313.0,208.0,205.0
917,553.0,310.0,207.0,205.0
918,548.0,303.0,205.0,203.0
919,537.0,304.0,201.0,200.0
920,533.0,307.0,198.0,198.0
921,537.0,308.0,197.0,196.0
922,543.0,308.0,198.0,196.0
923,548.0,308.0,202.0,198.0
924,551.0,305.0,207.0,201.0
925,552.0,303.0,209.0,203.0
926,544.0,299.0,209.0,204.0
927,547.0,295.0,205.0,204.0
928,552.0,297.0,204.0,203.0
929,555.0,304.0,207.0,204.0
930,557.0,310.0,209.0,205.0
931,556.0,313.0,210.0,207.0
932,554.0,312.0,211.0,208.0
933,550.0,306.0,209.0,207.0
934,540.0,304.0,206.0,205.0
935,533.0,307.0,201.0,201.0
936,536.0,309.0,198.0,198.0
937,542.0,309.0,198.0,196.0
938,546.0,308.0,200.0,197.0
939,550.0,306.0,203.0,198.0
940,552.0,304.0,204.0,200.0
941,548.0,301.0,204.0,200.0
942,546.0,296.0,200.0,199.0
943,550.0,296.0,199.0,198.0
944,555.0,303.0,201.0,198.0
945,557.0,309.0,204.0,200.0
946,557.0,313.0,207.0,202.0
947,554.0,314.0,208.0,204.0
948,551.0,308.0,206.0,204.0
949,544.0,304.0,203.0,202.0
950,535.0,306.0,198.0,199.0
951,535.0,307.0,196.0,196.0
952,540.0,308.0,197.0,195.0
953,545.0,308.0,199.0,195.0
954,549.0,307.0,204.0,198.0
955,552.0,305.0,207.0,201.0
956,551.0,302.0,208.0,203.0
957,544.0,297.0,206.0,203.0
958,550.0,295.0,203.0,202.0
959,554.0,300.0,204.0,202.0
960,556.0,308.0,206.0,203.0
961,556.0,312.0,210.0,205.0
962,554.0,313.0,210.0,206.0
963,552.0,310.0,210.0,207.0
964,548.0,304.0,208.0,205.0
965,536.0,305.0,203.0,203.0
966,533.0,308.0,199.0,200.0
967,538.0,308.0,199.0,197.0
968,543.0,309.0,199.0,197.0
969,548.0,308.0,201.0,198.0
970,551.0,306.0,203.0,199.0
971,552.0,304.0,204.0,199.0
972,545.0,299.0,201.0,198.0
973,546.0,295.0,197.0,196.0
974,552.0,298.0,197.0,196.0
975,556.0,305.0,200.0,198.0
976,557.0,311.0,204.0,199.0
977,556.0,314.0,205.0,202.0
978,553.0,313.0,205.0,201.0
979,549.0,306.0,203.0,201.0
980,539.0,304.0,200.0,199.0
981,533.0,308.0,196.0,196.0
982,536.0,309.0,193.0,194.0
983,541.0,309.0,194.0,192.0
984,546.0,309.0,198.0,194.0
985,550.0,307.0,202.0,197.0
986,552.0,305.0,205.0,200.0
987,548.0,302.0,206.0,201.0
988,546.0,297.0,202.0,200.0
989,551.0,297.0,200.0,199.0
990,555.0,303.0,202.0,199.0
991,557.0,310.0,204.0,201.0
992,557.0,314.0,207.0,203.0
993,554.0,314.0,209.0,204.0
994,551.0,310.0,208.0,204.0
995,544.0,305.0,204.0,203.0
996,535.0,307.0,199.0,199.0
997,534.0,310.0,196.0,197.0
998,539.0,311.0,196.0,195.0
999,544.0,310.0,196.0,194.0
1000,549.0,308.0,199.0,196.0
1001,551.0,307.0,203.0,197.0
1002,552.0,304.0,203.0,199.0
1003,544.0,300.0,200.0,198.0
1004,549.0,297.0,198.0,197.0
1005,554.0,301.0,199.0,197.0
1006,555.0,309.0,201.0,198.0
1007,557.0,314.0,204.0,200.0
1008,555.0,316.0,206.0,202.0
1009,552.0,312.0,206.0,203.0
1010,548.0,306.0,204.0,202.0
1011,536.0,307.0,198.0,199.0
1012,533.0,310.0,195.0,195.0
1013,537.0,311.0,194.0,192.0
1014,542.0,311.0,195.0,192.0
1015,548.0,311.0,199.0,194.0
1016,552.0,308.0,202.0,197.0
1017,552.0,305.0,204.0,199.0
1018,545.0,302.0,204.0,200.0
1019,548.0,298.0,199.0,199.0
1020,552.0,300.0,200.0,198.0
1021,555.0,306.0,202.0,198.0
1022,557.0,312.0,205.0,200.0
1023,556.0,315.0,208.0,202.0
1024,553.0,314.0,208.0,203.0
1025,549.0,308.0,206.0,203.0
1026,540.0,306.0,203.0,201.0
1027,533.0,309.0,199.0,198.0
1028,536.0,310.0,196.0,196.0
1029,541.0,311.0,197.0,194.0
1030,547.0,309.0,199.0,195.0
1031,550.0,307.0,203.0,197.0
1032,552.0,305.0,205.0,200.0
1033,548.0,302.0,206.0,201.0
1034,545.0,297.0,202.0,200.0
1035,550.0,298.0,200.0,200.0
1036,555.0,303.0,202.0,200.0
1037,557.0,310.0,205.0,202.0
1038,556.0,314.0,207.0,203.0
1039,555.0,315.0,208.0,204.0
1040,551.0,310.0,208.0,204.0
1041,544.0,305.0,204.0,202.0
1042,534.0,307.0,199.0,199.0
1043,534.0,309.0,196.0,196.0
1044,540.0,311.0,196.0,195.0
1045,545.0,310.0,198.0,195.0
1046,549.0,308.0,201.0,197.0
1047,552.0,306.0,203.0,199.0
1048,551.0,304.0,205.0,201.0
1049,545.0,299.0,202.0,200.0
1050,549.0,297.0,199.0,198.0
1051,554.0,301.0,200.0,197.0
1052,556.0,308.0,203.0,200.0
1053,557.0,314.0,207.0,202.0
1054,554.0,315.0,209.0,204.0
1055,552.0,311.0,208.0,204.0
1056,548.0,305.0,206.0,203.0
1057,536.0,306.0,202.0,201.0
1058,533.0,308.0,199.0,198.0
1059,538.0,310.0,196.0,196.0
1060,543.0,310.0,198.0,196.0
1061,547.0,309.0,201.0,197.0
1062,551.0,306.0,205.0,200.0
1063,552.0,304.0,207.0,202.0
1064,544.0,301.0,207.0,202.0
1065,546.0,295.0,202.0,201.0
1066,551.0,298.0,202.0,200.0
1067,556.0,305.0,204.0,201.0
1068,556.0,311.0,208.0,202.0
1069,555.0,314.0,209.0,204.0
1070,554.0,312.0,210.0,206.0
1071,549.0,306.0,208.0,206.0
1072,540.0,304.0,205.0,204.0
1073,534.0,308.0,200.0,201.0
1074,536.0,310.0,198.0,198.0
1075,541.0,309.0,198.0,196.0
1076,545.0,309.0,200.0,197.0
1077,550.0,307.0,203.0,199.0
1078,552.0,305.0,206.0,201.0
1079,548.0,302.0,206.0,202.0
1080,545.0,297.0,202.0,201.0
1081,549.0,296.0,200.0,199.0
1082,554.0,302.0,203.0,200.0
1083,556.0,309.0,205.0,201.0
1084,556.0,314.0,208.0,204.0
1085,554.0,314.0,209.0,204.0
1086,550.0,309.0,208.0,204.0
1087,544.0,304.0,205.0,203.0
1088,534.0,307.0,201.0,201.0
1089,534.0,309.0,198.0,198.0
1090,539.0,310.0,198.0,196.0
1091,544.0,310.0,199.0,196.0
1092,549.0,308.0,202.0,197.0
1093,552.0,306.0,204.0,200.0
1094,551.0,304.0,205.0,201.0
1095,544.0,300.0,203.0,200.0
1096,549.0,297.0,200.0,199.0
1097,553.0,300.0,201.0,199.0
1098,556.0,307.0,204.0,201.0
1099,556.0,313.0,207.0,203.0
1100,555.0,315.0,208.0,204.0
1101,552.0,312.0,208.0,205.0
1102,547.0,305.0,206.0,204.0
1103,536.0,306.0,202.0,202.0
1104,532.0,309.0,199.0,199.0
1105,537.0,310.0,198.0,197.0
1106,542.0,310.0,199.0,196.0
1107,547.0,309.0,202.0,198.0
1108,551.0,307.0,206.0,200.0
1109,551.0,305.0,207.0,202.0
1110,545.0,301.0,206.0,202.0
1111,546.0,297.0,202.0,201.0
1112,551.0,298.0,202.0,200.0
1113,555.0,305.0,205.0,201.0
1114,556.0,312.0,208.0,204.0
1115,555.0,316.0,210.0,205.0
1116,553.0,314.0,211.0,207.0
1117,550.0,308.0,208.0,207.0
1118,541.0,306.0,205.0,204.0
1119,533.0,308.0,200.0,201.0
1120,535.0,311.0,198.0,198.0
1121,540.0,311.0,199.0,197.0
1122,545.0,310.0,201.0,198.0
1123,549.0,308.0,203.0,199.0
1124,551.0,306.0,204.0,201.0
1125,549.0,303.0,203.0,201.0
1126,545.0,299.0,199.0,199.0
1127,549.0,298.0,199.0,198.0
1128,554.0,304.0,200.0,197.0
1129,556.0,310.0,203.0,200.0
1130,556.0,315.0,205.0,201.0
1131,555.0,315.0,206.0,202.0
1132,550.0,310.0,205.0,202.0
1133,544.0,305.0,201.0,200.0
1134,534.0,308.0,197.0,197.0
1135,533.0,310.0,193.0,194.0
1136,539.0,311.0,194.0,192.0
1137,544.0,312.0,196.0,193.0
1138,549.0,310.0,199.0,195.0
1139,551.0,308.0,204.0,198.0
1140,550.0,304.0,205.0,200.0
1141,543.0,300.0,204.0,200.0
1142,548.0,297.0,200.0,199.0
1143,553.0,301.0,200.0,199.0
1144,556.0,307.0,203.0,199.0
1145,556.0,314.0,205.0,201.0
1146,555.0,315.0,208.0,203.0
1147,552.0,312.0,208.0,204.0
1148,547.0,307.0,205.0,203.0
1149,537.0,307.0,201.0,200.0
1150,532.0,309.0,197.0,198.0
1151,537.0,311.0,196.0,195.0
1152,542.0,311.0,197.0,194.0
1153,547.0,309.0,200.0,196.0
1154,551.0,308.0,203.0,198.0
1155,551.0,305.0,204.0,200.0
1156,544.0,302.0,204.0,200.0
1157,546.0,297.0,200.0,199.0
1158,551.0,298.0,200.0,198.0
1159,555.0,305.0,202.0,199.0
1160,556.0,312.0,205.0,201.0
1161,556.0,315.0,207.0,202.0
1162,553.0,314.0,207.0,203.0
1163,549.0,308.0,205.0,203.0
1164,540.0,305.0,202.0,201.0
1165,533.0,309.0,198.0,198.0
1166,535.0,311.0,195.0,195.0
1167,540.0,311.0,196.0,195.0
1168,544.0,310.0,198.0,195.0
1169,549.0,309.0,202.0,197.0
1170,551.0,305.0,205.0,200.0
1171,548.0,302.0,207.0,201.0
1172,544.0,297.0,203.0,201.0
1173,550.0,298.0,201.0,200.0
1174,554.0,303.0,203.0,201.0
1175,556.0,310.0,206.0,202.0
1176,555.0,315.0,209.0,204.0
1177,553.0,315.0,210.0,206.0
1178,549.0,310.0,209.0,206.0
1179,543.0,305.0,207.0,204.0
1180,533.0,307.0,202.0,202.0
1181,532.0,309.0,199.0,199.0
1182,537.0,310.0,199.0,197.0
1183,542.0,311.0,199.0,197.0
1184,548.0,308.0,202.0,199.0
1185,551.0,307.0,203.0,200.0
1186,551.0,303.0,203.0,200.0
1187,543.0,300.0,200.0,199.0
1188,547.0,297.0,197.0,197.0
1189,552.0,300.0,199.0,197.0
1190,554.0,308.0,202.0,198.0
1191,555.0,313.0,205.0,200.0
1192,554.0,316.0,206.0,202.0
1193,551.0,312.0,206.0,203.0
1194,547.0,306.0,203.0,201.0
1195,536.0,307.0,199.0,198.0
1196,532.0,309.0,195.0,195.0
1197,536.0,310.0,194.0,194.0
1198,542.0,310.0,195.0,193.0
1199,546.0,310.0,199.0,195.0
1200,550.0,308.0,203.0,197.0
1201,551.0,305.0,205.0,200.0
1202,545.0,302.0,204.0,201.0
1203,545.0,297.0,201.0,199.0
1204,551.0,299.0,200.0,198.0
1205,554.0,305.0,202.0,199.0
1206,556.0,312.0,205.0,201.0
1207,555.0,315.0,207.0,203.0
1208,553.0,314.0,207.0,204.0
1209,549.0,308.0,206.0,203.0
1210,540.0,305.0,202.0,201.0
1211,532.0,308.0,198.0,198.0
1212,535.0,310.0,196.0,195.0
1213,540.0,310.0,195.0,193.0
1214,545.0,309.0,198.0,194.0
1215,549.0,308.0,200.0,196.0
1216,551.0,306.0,203.0,197.0
1217,548.0,302.0,203.0,199.0
1218,545.0,297.0,200.0,198.0
1219,549.0,297.0,197.0,195.0
1220,555.0,303.0,199.0,197.0
1221,556.0,310.0,202.0,198.0
1222,555.0,315.0,205.0,200.0
1223,553.0,315.0,206.0,201.0
1224,550.0,309.0,205.0,202.0
1225,544.0,305.0,203.0,200.0
1226,534.0,307.0,197.0,197.0
1227,534.0,310.0,194.0,195.0
1228,538.0,311.0,193.0,193.0
1229,543.0,310.0,195.0,192.0
1230,548.0,309.0,198.0,194.0
1231,551.0,306.0,200.0,195.0
1232,550.0,304.0,201.0,196.0
1233,543.0,299.0,198.0,196.0
1234,548.0,297.0,195.0,194.0
1235,552.0,301.0,197.0,194.0
1236,555.0,308.0,200.0,196.0
1237,556.0,313.0,201.0,197.0
1238,555.0,316.0,203.0,199.0
1239,552.0,312.0,204.0,200.0
1240,547.0,306.0,202.0,200.0
1241,537.0,307.0,197.0,196.0
1242,532.0,309.0,194.0,193.0
1243,537.0,311.0,192.0,192.0
1244,542.0,310.0,194.0,192.0
1245,547.0,309.0,198.0,193.0
1246,551.0,308.0,202.0,196.0
1247,552.0,305.0,204.0,199.0
1248,545.0,303.0,204.0,200.0
1249,546.0,298.0,200.0,199.0
1250,551.0,299.0,200.0,198.0
1251,555.0,305.0,202.0,199.0
1252,556.0,312.0,205.0,201.0
1253,556.0,315.0,207.0,203.0
1254,553.0,314.0,208.0,204.0
1255,549.0,308.0,208.0,204.0
1256,541.0,305.0,203.0,203.0
1257,533.0,309.0,199.0,199.0
1258,536.0,311.0,196.0,196.0
1259,540.0,311.0,196.0,195.0
1260,545.0,310.0,200.0,196.0
1261,549.0,309.0,202.0,197.0
1262,551.0,307.0,204.0,199.0
1263,549.0,304.0,203.0,200.0
1264,545.0,298.0,200.0,198.0
1265,550.0,297.0,198.0,196.0
1266,555.0,304.0,199.0,197.0
1267,557.0,310.0,203.0,199.0
1268,556.0,316.0,205.0,201.0
1269,555.0,316.0,207.0,202.0
1270,551.0,310.0,205.0,202.0
1271,545.0,305.0,203.0,200.0
1272,534.0,307.0,198.0,197.0
1273,533.0,310.0,195.0,195.0
1274,539.0,310.0,195.0,193.0
1275,543.0,311.0,196.0,194.0
1276,548.0,309.0,201.0,197.0
1277,551.0,307.0,204.0,199.0
1278,551.0,304.0,207.0,202.0
1279,543.0,299.0,205.0,202.0
1280,547.0,296.0,201.0,200.0
1281,553.0,300.0,201.0,200.0
1282,555.0,307.0,204.0,201.0
1283,556.0,313.0,208.0,202.0
1284,555.0,315.0,209.0,204.0
1285,552.0,311.0,209.0,205.0
1286,548.0,306.0,207.0,204.0
1287,537.0,306.0,203.0,202.0
1288,533.0,309.0,200.0,199.0
1289,537.0,310.0,197.0,197.0
1290,542.0,310.0,198.0,196.0
1291,546.0,310.0,201.0,197.0
1292,550.0,308.0,203.0,199.0
1293,552.0,305.0,205.0,201.0
1294,545.0,302.0,204.0,201.0
1295,546.0,297.0,200.0,199.0
1296,551.0,299.0,199.0,198.0
1297,555.0,305.0,201.0,199.0
1298,556.0,311.0,204.0,200.0
1299,555.0,316.0,206.0,202.0
1300,553.0,314.0,207.0,203.0
1301,549.0,309.0,205.0,203.0
1302,541.0,306.0,202.0,200.0
1303,533.0,308.0,198.0,197.0
1304,535.0,311.0,196.0,195.0
1305,540.0,311.0,195.0,195.0
1306,545.0,310.0,198.0,195.0
1307,549.0,310.0,201.0,196.0
1308,551.0,307.0,204.0,199.0
1309,549.0,304.0,203.0,200.0
1310,544.0,299.0,200.0,199.0
1311,549.0,298.0,198.0,197.0
1312,554.0,303.0,200.0,197.0
1313,556.0,310.0,203.0,199.0
1314,556.0,316.0,205.0,201.0
1315,555.0,317.0,206.0,202.0
1316,551.0,312.0,206.0,203.0
1317,545.0,306.0,204.0,202.0
1318,535.0,308.0,199.0,199.0
1319,533.0,312.0,196.0,196.0
1320,538.0,312.0,195.0,195.0
1321,543.0,312.0,198.0,195.0
1322,547.0,311.0,202.0,198.0
1323,550.0,308.0,202.0,198.0
1324,551.0,305.0,201.0,198.0
1325,544.0,302.0,197.0,196.0
1326,548.0,298.0,195.0,194.0
1327,553.0,302.0,197.0,194.0
1328,556.0,309.0,200.0,197.0
1329,556.0,315.0,204.0,198.0
1330,554.0,317.0,204.0,199.0
1331,552.0,313.0,203.0,200.0
1332,547.0,307.0,200.0,198.0
1333,536.0,307.0,196.0,195.0
1334,532.0,310.0,192.0,193.0
1335,537.0,311.0,192.0,191.0
1336,542.0,311.0,193.0,192.0
1337,547.0,311.0,200.0,194.0
1338,549.0,309.0,205.0,197.0
1339,551.0,306.0,208.0,201.0
1340,545.0,302.0,207.0,202.0
1341,546.0,298.0,203.0,201.0
1342,551.0,300.0,201.0,201.0
1343,555.0,305.0,203.0,202.0
1344,556.0,312.0,207.0,203.0
1345,555.0,316.0,210.0,205.0
1346,553.0,315.0,210.0,207.0
1347,549.0,309.0,209.0,206.0
1348,540.0,306.0,205.0,204.0
1349,532.0,308.0,200.0,200.0
1350,535.0,310.0,197.0,197.0
1351,540.0,311.0,197.0,196.0
1352,545.0,311.0,199.0,196.0
1353,549.0,309.0,201.0,197.0
1354,551.0,307.0,204.0,199.0
1355,549.0,304.0,203.0,200.0
1356,544.0,298.0,200.0,198.0
1357,549.0,298.0,198.0,197.0
1358,553.0,303.0,200.0,197.0
1359,556.0,311.0,202.0,199.0
1360,556.0,315.0,206.0,201.0
1361,554.0,316.0,207.0,203.0
1362,551.0,311.0,206.0,203.0
1363,545.0,306.0,202.0,201.0
1364,534.0,309.0,198.0,198.0
1365,534.0,311.0,195.0,195.0
1366,538.0,311.0,195.0,194.0
1367,543.0,311.0,198.0,195.0
1368,548.0,310.0,202.0,197.0
1369,551.0,307.0,203.0,199.0
1370,551.0,306.0,205.0,200.0
1371,544.0,301.0,203.0,200.0
1372,548.0,298.0,199.0,199.0
1373,552.0,302.0,200.0,199.0
1374,555.0,309.0,204.0,200.0
1375,556.0,314.0,207.0,202.0
1376,554.0,315.0,207.0,204.0
1377,552.0,313.0,208.0,204.0
1378,547.0,306.0,205.0,203.0
1379,537.0,307.0,201.0,201.0
1380,533.0,310.0,197.0,197.0
1381,537.0,311.0,196.0,196.0
1382,541.0,312.0,196.0,195.0
1383,546.0,310.0,200.0,196.0
1384,549.0,308.0,203.0,198.0
1385,551.0,305.0,206.0,200.0
1386,545.0,302.0,206.0,201.0
1387,546.0,297.0,203.0,200.0
1388,551.0,300.0,200.0,200.0
1389,556.0,306.0,203.0,201.0
1390,556.0,313.0,206.0,203.0
1391,556.0,316.0,208.0,204.0
1392,553.0,315.0,209.0,205.0
1393,549.0,308.0,207.0,204.0
1394,540.0,306.0,204.0,202.0
1395,534.0,308.0,199.0,199.0
1396,536.0,310.0,197.0,197.0
1397,540.0,311.0,198.0,196.0
1398,545.0,311.0,200.0,197.0
1399,549.0,309.0,204.0,199.0
1400,551.0,307.0,206.0,202.0
1401,549.0,303.0,207.0,203.0
1402,544.0,298.0,204.0,202.0
1403,550.0,298.0,202.0,200.0
1404,553.0,303.0,203.0,201.0
1405,556.0,310.0,207.0,203.0
1406,556.0,315.0,209.0,205.0
1407,554.0,316.0,211.0,206.0
1408,551.0,310.0,211.0,207.0
1409,545.0,305.0,207.0,206.0
1410,534.0,307.0,203.0,202.0
1411,533.0,310.0,198.0,199.0
1412,539.0,310.0,197.0,197.0
1413,543.0,310.0,198.0,196.0
1414,548.0,309.0,201.0,197.0
1415,551.0,307.0,204.0,199.0
1416,551.0,304.0,205.0,200.0
1417,543.0,300.0,201.0,200.0
1418,548.0,297.0,198.0,198.0
1419,552.0,301.0,199.0,197.0
1420,555.0,308.0,202.0,199.0
1421,556.0,314.0,204.0,200.0
1422,555.0,315.0,206.0,202.0
1423,552.0,313.0,207.0,203.0
1424,547.0,306.0,205.0,202.0
1425,536.0,306.0,200.0,200.0
1426,532.0,309.0,196.0,197.0
1427,537.0,310.0,195.0,194.0
1428,542.0,311.0,195.0,194.0
1429,547.0,310.0,200.0,195.0
1430,551.0,308.0,202.0,197.0
1431,552.0,305.0,202.0,199.0
1432,545.0,302.0,201.0,199.0
1433,547.0,297.0,198.0,197.0
1434,551.0,300.0,197.0,197.0
1435,555.0,306.0,200.0,197.0
1436,556.0,313.0,202.0,198.0
1437,555.0,316.0,205.0,200.0
1438,552.0,315.0,206.0,201.0
1439,550.0,308.0,205.0,201.0
1440,541.0,305.0,200.0,199.0
1441,533.0,309.0,195.0,196.0
1442,536.0,310.0,194.0,194.0
1443,540.0,312.0,195.0,194.0
1444,545.0,311.0,200.0,195.0
1445,548.0,309.0,204.0,198.0
1446,550.0,307.0,207.0,201.0
1447,548.0,304.0,208.0,203.0
1448,544.0,299.0,206.0,202.0
1449,549.0,299.0,203.0,202.0
1450,553.0,304.0,204.0,202.0
1451,556.0,311.0,207.0,204.0
1452,555.0,316.0,210.0,206.0
1453,554.0,317.0,211.0,207.0
1454,550.0,312.0,210.0,207.0
1455,545.0,307.0,208.0,205.0
1456,534.0,308.0,203.0,202.0
1457,533.0,311.0,199.0,199.0
1458,539.0,311.0,198.0,197.0
1459,543.0,312.0,200.0,198.0
1460,548.0,311.0,204.0,200.0
1461,551.0,309.0,208.0,202.0
1462,551.0,306.0,209.0,204.0
1463,543.0,302.0,208.0,204.0
1464,547.0,298.0,204.0,203.0
1465,552.0,302.0,204.0,202.0
1466,555.0,308.0,207.0,204.0
1467,556.0,314.0,210.0,206.0
1468,555.0,317.0,213.0,208.0
1469,552.0,313.0,212.0,208.0
1470,548.0,308.0,210.0,207.0
1471,537.0,307.0,206.0,206.0
1472,532.0,310.0,202.0,202.0
1473,537.0,311.0,199.0,200.0
1474,542.0,311.0,199.0,198.0
1475,546.0,311.0,202.0,199.0
1476,550.0,309.0,205.0,200.0
1477,551.0,306.0,206.0,202.0
1478,545.0,303.0,205.0,203.0
1479,546.0,298.0,201.0,200.0
1480,551.0,300.0,201.0,199.0
1481,555.0,306.0,202.0,200.0
1482,556.0,313.0,206.0,202.0
1483,555.0,316.0,209.0,204.0
1484,553.0,315.0,209.0,205.0
1485,549.0,310.0,207.0,205.0
1486,541.0,307.0,204.0,202.0
1487,532.0,310.0,200.0,199.0
1488,534.0,312.0,197.0,197.0
1489,540.0,313.0,197.0,195.0
1490,544.0,313.0,200.0,196.0
1491,549.0,312.0,202.0,198.0
1492,551.0,309.0,205.0,200.0
1493,548.0,306.0,205.0,201.0
1494,545.0,300.0,201.0,200.0
1495,549.0,300.0,199.0,198.0
1496,554.0,305.0,200.0,199.0
1497,556.0,312.0,204.0,201.0
1498,556.0,316.0,206.0,202.0
1499,554.0,317.0,206.0,203.0
1500,551.0,312.0,206.0,203.0
1501,546.0,307.0,202.0,202.0
1502,535.0,309.0,198.0,199.0
1503,533.0,312.0,195.0,195.0
1504,538.0,312.0,195.0,193.0
1505,543.0,313.0,196.0,193.0
1506,548.0,311.0,200.0,195.0
1507,550.0,309.0,203.0,198.0
1508,550.0,306.0,205.0,200.0
1509,543.0,302.0,203.0,201.0
1510,547.0,298.0,200.0,199.0
1511,553.0,302.0,200.0,199.0
1512,555.0,309.0,204.0,200.0
1513,555.0,314.0,206.0,202.0
1514,554.0,317.0,207.0,204.0
1515,551.0,314.0,207.0,204.0
1516,548.0,309.0,206.0,203.0
1517,537.0,307.0,202.0,201.0
1518,532.0,310.0,198.0,198.0
1519,535.0,311.0,197.0,196.0
1520,540.0,311.0,197.0,195.0
1521,546.0,311.0,200.0,196.0
1522,549.0,309.0,202.0,198.0
1523,552.0,307.0,204.0,200.0
1524,545.0,303.0,204.0,200.0
1525,545.0,298.0,200.0,199.0
1526,550.0,299.0,200.0,198.0
1527,554.0,306.0,202.0,199.0
1528,557.0,312.0,206.0,201.0
1529,556.0,316.0,208.0,203.0
1530,553.0,315.0,209.0,205.0
1531,549.0,309.0,207.0,205.0
1532,541.0,306.0,204.0,203.0
1533,532.0,309.0,199.0,200.0
1534,534.0,311.0,197.0,196.0
1535,539.0,311.0,196.0,195.0
1536,544.0,311.0,199.0,196.0
1537,549.0,309.0,202.0,197.0
1538,552.0,306.0,206.0,200.0
1539,549.0,304.0,207.0,202.0
1540,544.0,299.0,204.0,202.0
1541,549.0,298.0,202.0,201.0
1542,553.0,302.0,202.0,200.0
1543,555.0,310.0,204.0,201.0
1544,556.0,314.0,207.0,203.0
1545,554.0,317.0,208.0,205.0
1546,551.0,312.0,208.0,205.0
1547,546.0,306.0,205.0,203.0
1548,535.0,308.0,201.0,200.0
1549,533.0,310.0,196.0,197.0
1550,538.0,312.0,196.0,195.0
1551,542.0,311.0,197.0,194.0
1552,547.0,310.0,201.0,196.0
1553,550.0,307.0,205.0,199.0
1554,550.0,305.0,205.0,200.0
1555,543.0,301.0,204.0,201.0
1556,548.0,297.0,200.0,200.0
1557,553.0,300.0,202.0,200.0
1558,555.0,309.0,204.0,202.0
1559,555.0,315.0,207.0,204.0
1560,554.0,317.0,209.0,205.0
1561,552.0,314.0,209.0,206.0
1562,549.0,308.0,207.0,205.0
1563,538.0,308.0,203.0,203.0
1564,533.0,311.0,199.0,200.0
1565,537.0,312.0,198.0,198.0
1566,541.0,312.0,199.0,196.0
1567,546.0,311.0,202.0,198.0
1568,550.0,310.0,206.0,201.0
1569,552.0,307.0,207.0,203.0
1570,545.0,304.0,208.0,204.0
1571,546.0,299.0,205.0,203.0
1572,550.0,301.0,204.0,202.0
1573,554.0,307.0,205.0,202.0
1574,556.0,313.0,208.0,204.0
1575,555.0,317.0,210.0,206.0
1576,553.0,315.0,211.0,207.0
1577,550.0,310.0,209.0,207.0
1578,541.0,307.0,206.0,205.0
1579,533.0,309.0,201.0,202.0
1580,535.0,312.0,199.0,199.0
1581,540.0,312.0,199.0,197.0
1582,545.0,311.0,200.0,198.0
1583,549.0,310.0,203.0,199.0
1584,552.0,308.0,206.0,201.0
1585,550.0,305.0,205.0,202.0
1586,544.0,300.0,202.0,200.0
1587,549.0,298.0,199.0,198.0
1588,554.0,303.0,202.0,199.0
1589,556.0,311.0,205.0,201.0
1590,557.0,316.0,208.0,203.0
1591,554.0,317.0,209.0,204.0
1592,551.0,312.0,208.0,205.0
1593,546.0,306.0,206.0,204.0
1594,535.0,308.0,201.0,202.0
1595,533.0,311.0,198.0,198.0
1596,538.0,311.0,197.0,196.0
1597,543.0,311.0,199.0,196.0
1598,549.0,310.0,202.0,198.0
1599,551.0,308.0,205.0,200.0
1600,552.0,306.0,206.0,203.0
1601,544.0,301.0,204.0,202.0
1602,548.0,298.0,200.0,201.0
1603,553.0,302.0,201.0,199.0
1604,556.0,309.0,204.0,201.0
1605,556.0,314.0,208.0,203.0
1606,555.0,316.0,208.0,204.0
1607,553.0,313.0,209.0,205.0
1608,549.0,308.0,207.0,203.0
1609,538.0,307.0,202.0,202.0
1610,532.0,310.0,198.0,198.0
1611,536.0,312.0,197.0,196.0
1612,542.0,311.0,197.0,195.0
1613,547.0,310.0,200.0,196.0
1614,550.0,309.0,204.0,199.0
1615,551.0,307.0,207.0,202.0
1616,546.0,303.0,207.0,202.0
1617,546.0,298.0,203.0,201.0
1618,551.0,299.0,201.0,200.0
1619,556.0,305.0,203.0,200.0
1620,557.0,312.0,207.0,202.0
1621,555.0,316.0,209.0,204.0
1622,554.0,316.0,210.0,205.0
1623,550.0,310.0,209.0,206.0
1624,542.0,307.0,205.0,204.0
1625,534.0,310.0,200.0,201.0
1626,535.0,311.0,197.0,197.0
1627,540.0,312.0,196.0,196.0
1628,546.0,311.0,198.0,196.0
1629,549.0,309.0,201.0,197.0
1630,552.0,308.0,203.0,199.0
1631,550.0,306.0,204.0,200.0
1632,545.0,300.0,200.0,199.0
1633,550.0,299.0,198.0,198.0
1634,554.0,303.0,199.0,198.0
1635,556.0,311.0,202.0,199.0
1636,556.0,315.0,205.0,201.0
1637,554.0,316.0,207.0,203.0
1638,552.0,312.0,207.0,203.0
1639,546.0,307.0,204.0,202.0
1640,535.0,308.0,200.0,199.0
1641,534.0,311.0,196.0,196.0
1642,539.0,312.0,196.0,195.0
1643,543.0,311.0,198.0,195.0
1644,548.0,310.0,202.0,198.0
1645,551.0,308.0,206.0,200.0
1646,551.0,306.0,207.0,202.0
1647,544.0,302.0,206.0,203.0
1648,547.0,298.0,203.0,202.0
1649,552.0,301.0,203.0,201.0
1650,555.0,309.0,205.0,203.0
1651,556.0,315.0,208.0,204.0
1652,555.0,317.0,210.0,206.0
1653,553.0,315.0,209.0,206.0
1654,549.0,308.0,207.0,205.0
1655,539.0,308.0,203.0,203.0
1656,533.0,310.0,199.0,200.0
1657,536.0,313.0,198.0,197.0
1658,542.0,312.0,200.0,196.0
1659,546.0,312.0,204.0,199.0
1660,550.0,309.0,206.0,200.0
1661,552.0,307.0,208.0,203.0
1662,546.0,305.0,208.0,205.0
1663,547.0,299.0,204.0,203.0
1664,551.0,300.0,203.0,202.0
1665,555.0,306.0,205.0,203.0
1666,557.0,313.0,207.0,205.0
1667,556.0,317.0,210.0,207.0
1668,554.0,317.0,212.0,207.0
1669,550.0,311.0,210.0,207.0
1670,542.0,308.0,207.0,205.0
1671,533.0,310.0,203.0,202.0
1672,535.0,312.0,199.0,199.0
1673,540.0,313.0,198.0,197.0
1674,545.0,313.0,200.0,198.0
1675,549.0,311.0,203.0,199.0
1676,551.0,309.0,205.0,200.0
1677,550.0,305.0,205.0,201.0
1678,544.0,301.0,202.0,200.0
1679,549.0,299.0,200.0,198.0
1680,554.0,304.0,201.0,199.0
1681,556.0,312.0,204.0,200.0
1682,556.0,316.0,207.0,203.0
1683,554.0,317.0,208.0,204.0
1684,552.0,313.0,207.0,204.0
1685,546.0,307.0,204.0,203.0
1686,535.0,309.0,200.0,200.0
1687,533.0,311.0,196.0,197.0
1688,538.0,312.0,196.0,195.0
1689,543.0,312.0,197.0,195.0
1690,548.0,311.0,200.0,196.0
1691,551.0,309.0,202.0,198.0
1692,551.0,307.0,203.0,199.0
1693,544.0,302.0,199.0,198.0
1694,548.0,298.0,197.0,196.0
1695,552.0,302.0,197.0,196.0
1696,556.0,309.0,200.0,197.0
1697,556.0,314.0,202.0,198.0
1698,555.0,316.0,204.0,200.0
1699,553.0,314.0,204.0,201.0
1700,549.0,308.0,202.0,200.0
1701,539.0,307.0,198.0,197.0
1702,532.0,310.0,195.0,195.0
1703,537.0,311.0,193.0,193.0
1704,542.0,312.0,194.0,192.0
1705,547.0,311.0,197.0,194.0
1706,550.0,309.0,201.0,196.0
1707,552.0,306.0,204.0,198.0
1708,546.0,303.0,204.0,200.0
1709,546.0,298.0,201.0,199.0
1710,551.0,300.0,199.0,199.0
1711,555.0,306.0,201.0,199.0
1712,556.0,311.0,203.0,200.0
1713,556.0,316.0,205.0,201.0
1714,553.0,315.0,207.0,202.0
1715,550.0,309.0,206.0,202.0
1716,542.0,306.0,202.0,200.0
1717,533.0,309.0,198.0,198.0
1718,534.0,311.0,196.0,195.0
1719,540.0,311.0,195.0,194.0
1720,544.0,310.0,198.0,195.0
1721,549.0,309.0,201.0,196.0
1722,552.0,307.0,203.0,199.0
1723,551.0,304.0,204.0,200.0
1724,544.0,300.0,201.0,199.0
1725,549.0,297.0,199.0,198.0
1726,553.0,302.0,201.0,198.0
1727,556.0,309.0,204.0,200.0
1728,556.0,315.0,207.0,202.0
1729,554.0,316.0,208.0,204.0
1730,551.0,312.0,207.0,205.0
1731,546.0,306.0,205.0,203.0
1732,535.0,307.0,200.0,200.0
1733,533.0,310.0,197.0,197.0
1734,538.0,311.0,196.0,195.0
1735,542.0,310.0,198.0,195.0
1736,548.0,310.0,200.0,196.0
1737,550.0,307.0,203.0,198.0
1738,551.0,305.0,204.0,200.0
1739,544.0,302.0,202.0,199.0
1740,548.0,297.0,198.0,198.0
1741,552.0,300.0,199.0,197.0
1742,555.0,306.0,201.0,198.0
1743,556.0,312.0,205.0,200.0
1744,555.0,315.0,207.0,202.0
1745,553.0,313.0,208.0,203.0
1746,548.0,306.0,206.0,203.0
1747,538.0,306.0,200.0,200.0
1748,532.0,308.0,196.0,197.0
1749,536.0,309.0,194.0,195.0
1750,541.0,310.0,196.0,194.0
1751,546.0,309.0,199.0,195.0
1752,550.0,307.0,203.0,198.0
1753,552.0,305.0,206.0,200.0
1754,546.0,301.0,205.0,201.0
1755,545.0,296.0,202.0,199.0
1756,551.0,298.0,200.0,199.0
1757,554.0,303.0,202.0,199.0
1758,556.0,310.0,204.0,201.0
1759,556.0,314.0,207.0,203.0
1760,553.0,314.0,208.0,204.0
1761,549.0,307.0,207.0,204.0
1762,542.0,304.0,204.0,202.0
1763,533.0,307.0,199.0,199.0
1764,534.0,309.0,196.0,196.0
1765,539.0,309.0,196.0,195.0
1766,544.0,309.0,199.0,196.0
1767,549.0,307.0,203.0,197.0
1768,551.0,305.0,205.0,200.0
1769,550.0,303.0,206.0,201.0
1770,544.0,298.0,203.0,201.0
1771,550.0,296.0,202.0,200.0
1772,553.0,301.0,203.0,201.0
1773,556.0,308.0,206.0,202.0
1774,556.0,313.0,209.0,204.0
1775,554.0,315.0,210.0,205.0
1776,552.0,310.0,209.0,206.0
1777,546.0,305.0,207.0,205.0
1778,535.0,306.0,203.0,203.0
1779,533.0,309.0,200.0,199.0
1780,538.0,309.0,198.0,197.0
1781,543.0,310.0,199.0,196.0
1782,548.0,308.0,201.0,197.0
1783,551.0,306.0,203.0,199.0
1784,552.0,304.0,206.0,201.0
1785,544.0,300.0,203.0,201.0
1786,547.0,296.0,199.0,199.0
1787,553.0,299.0,200.0,199.0
1788,556.0,305.0,203.0,199.0
1789,557.0,312.0,206.0,202.0
1790,556.0,314.0,207.0,203.0
1791,553.0,313.0,208.0,204.0
1792,549.0,306.0,207.0,204.0
1793,538.0,305.0,203.0,202.0
1794,533.0,309.0,198.0,199.0
1795,536.0,310.0,196.0,197.0
1796,541.0,310.0,198.0,196.0
1797,546.0,309.0,200.0,197.0
1798,550.0,307.0,204.0,199.0
1799,552.0,305.0,206.0,201.0
1800,546.0,302.0,205.0,202.0
1801,546.0,296.0,202.0,200.0
1802,551.0,297.0,200.0,199.0
1803,554.0,303.0,203.0,200.0
1804,556.0,310.0,207.0,202.0
1805,556.0,314.0,209.0,203.0
1806,554.0,314.0,209.0,205.0
1807,551.0,308.0,208.0,205.0
1808,543.0,304.0,204.0,203.0
1809,534.0,307.0,200.0,200.0
1810,535.0,310.0,198.0,198.0
1811,539.0,311.0,198.0,196.0
1812,544.0,309.0,200.0,196.0
1813,549.0,307.0,201.0,197.0
1814,552.0,306.0,201.0,198.0
1815,550.0,304.0,201.0,198.0
1816,544.0,299.0,196.0,196.0
1817,549.0,297.0,194.0,194.0
1818,553.0,301.0,196.0,194.0
1819,556.0,308.0,199.0,195.0
1820,557.0,314.0,202.0,197.0
1821,555.0,316.0,203.0,198.0
1822,552.0,312.0,202.0,198.0
1823,546.0,306.0,199.0,196.0
1824,535.0,307.0,194.0,194.0
1825,533.0,310.0,191.0,192.0
1826,538.0,311.0,191.0,190.0
1827,543.0,311.0,193.0,190.0
1828,548.0,310.0,196.0,193.0
1829,551.0,309.0,202.0,195.0
1830,552.0,305.0,204.0,198.0
1831,543.0,302.0,204.0,199.0
1832,547.0,298.0,199.0,198.0
1833,552.0,300.0,199.0,197.0
1834,555.0,307.0,201.0,198.0
1835,556.0,313.0,204.0,200.0
1836,556.0,317.0,206.0,202.0
1837,552.0,315.0,207.0,203.0
1838,549.0,309.0,205.0,203.0
1839,539.0,307.0,201.0,200.0
1840,533.0,311.0,198.0,198.0
1841,536.0,311.0,196.0,195.0
1842,541.0,312.0,197.0,195.0
1843,547.0,311.0,199.0,196.0
1844,550.0,310.0,203.0,198.0
1845,551.0,307.0,204.0,200.0
1846,547.0,304.0,203.0,200.0
1847,546.0,299.0,199.0,199.0
1848,551.0,299.0,198.0,198.0
1849,555.0,306.0,202.0,199.0
1850,556.0,312.0,204.0,201.0
1851,556.0,316.0,207.0,202.0
1852,554.0,316.0,207.0,203.0
1853,550.0,310.0,206.0,203.0
1854,544.0,307.0,202.0,201.0
1855,535.0,308.0,198.0,199.0
1856,535.0,311.0,195.0,195.0
1857,540.0,312.0,195.0,194.0
1858,544.0,311.0,197.0,194.0
1859,549.0,309.0,201.0,196.0
1860,551.0,308.0,204.0,198.0
1861,550.0,305.0,205.0,200.0
1862,544.0,300.0,203.0,200.0
1863,549.0,298.0,199.0,199.0
1864,554.0,304.0,200.0,199.0
1865,556.0,310.0,204.0,201.0
1866,557.0,315.0,207.0,203.0
1867,555.0,317.0,207.0,204.0
1868,552.0,313.0,207.0,205.0
1869,547.0,307.0,205.0,203.0
1870,537.0,308.0,202.0,201.0
1871,534.0,311.0,196.0,197.0
1872,539.0,312.0,195.0,195.0
1873,543.0,312.0,197.0,194.0
1874,547.0,311.0,200.0,196.0
1875,551.0,309.0,204.0,198.0
1876,551.0,306.0,205.0,200.0
1877,545.0,303.0,203.0,201.0
1878,547.0,298.0,200.0,199.0
1879,552.0,300.0,200.0,199.0
1880,555.0,308.0,202.0,199.0
1881,556.0,313.0,206.0,202.0
1882,555.0,316.0,208.0,203.0
1883,553.0,315.0,209.0,204.0
1884,549.0,309.0,208.0,204.0
1885,540.0,307.0,204.0,202.0
1886,533.0,310.0,200.0,199.0
1887,536.0,312.0,197.0,196.0
1888,542.0,312.0,196.0,195.0
1889,546.0,311.0,198.0,195.0
1890,550.0,309.0,200.0,197.0
1891,552.0,307.0,203.0,199.0
1892,548.0,304.0,203.0,199.0
1893,545.0,298.0,199.0,198.0
1894,550.0,299.0,198.0,197.0
1895,554.0,304.0,200.0,197.0
1896,557.0,311.0,203.0,199.0
1897,556.0,316.0,204.0,201.0
1898,554.0,315.0,205.0,201.0
1899,551.0,311.0,204.0,201.0
1900,544.0,307.0,201.0,200.0
1901,534.0,308.0,196.0,197.0
1902,534.0,311.0,194.0,194.0
1903,540.0,312.0,193.0,192.0
1904,544.0,311.0,196.0,192.0
1905,549.0,310.0,199.0,195.0
1906,551.0,307.0,203.0,197.0
1907,551.0,305.0,204.0,199.0
1908,544.0,300.0,202.0,199.0
1909,548.0,297.0,199.0,198.0
1910,553.0,302.0,200.0,198.0
1911,556.0,309.0,203.0,199.0
1912,556.0,314.0,205.0,201.0
1913,555.0,316.0,206.0,202.0
1914,552.0,312.0,206.0,203.0
1915,547.0,307.0,204.0,202.0
1916,537.0,307.0,199.0,199.0
1917,533.0,310.0,196.0,196.0
1918,538.0,312.0,195.0,194.0
1919,542.0,311.0,197.0,194.0
1920,547.0,310.0,200.0,195.0
1921,550.0,307.0,202.0,197.0
1922,551.0,305.0,204.0,198.0
1923,544.0,301.0,203.0,199.0
1924,547.0,297.0,198.0,197.0
1925,553.0,300.0,198.0,197.0
1926,556.0,306.0,202.0,198.0
1927,556.0,312.0,204.0,200.0
1928,555.0,315.0,206.0,202.0
1929,553.0,313.0,206.0,202.0
1930,549.0,307.0,204.0,202.0
1931,539.0,305.0,200.0,200.0
1932,532.0,308.0,196.0,196.0
1933,536.0,311.0,193.0,193.0
1934,541.0,310.0,193.0,193.0
1935,545.0,310.0,197.0,193.0
1936,550.0,307.0,200.0,195.0
1937,551.0,305.0,202.0,197.0
1938,547.0,303.0,202.0,198.0
1939,545.0,297.0,198.0,196.0
1940,551.0,297.0,196.0,194.0
1941,554.0,303.0,198.0,195.0
1942,556.0,311.0,200.0,197.0
1943,556.0,315.0,204.0,199.0
1944,554.0,315.0,204.0,200.0
1945,550.0,310.0,204.0,201.0
1946,543.0,305.0,200.0,198.0
1947,533.0,307.0,195.0,195.0
1948,534.0,310.0,192.0,192.0
1949,540.0,310.0,192.0,191.0
1950,544.0,310.0,194.0,191.0
1951,549.0,309.0,197.0,193.0
1952,551.0,307.0,200.0,195.0
1953,551.0,304.0,202.0,197.0
1954,544.0,300.0,200.0,197.0
1955,549.0,297.0,196.0,195.0
1956,553.0,301.0,196.0,195.0
1957,556.0,309.0,199.0,196.0
1958,556.0,314.0,202.0,198.0
1959,555.0,316.0,204.0,200.0
1960,552.0,312.0,205.0,200.0
1961,547.0,305.0,201.0,200.0
1962,536.0,306.0,197.0,197.0
1963,533.0,309.0,193.0,193.0
1964,538.0,310.0,193.0,192.0
1965,543.0,310.0,195.0,192.0
1966,548.0,309.0,198.0,193.0
1967,551.0,307.0,200.0,195.0
1968,552.0,305.0,203.0,198.0
1969,545.0,301.0,201.0,198.0
1970,547.0,296.0,198.0,196.0
1971,553.0,299.0,197.0,196.0
1972,555.0,306.0,201.0,197.0
1973,557.0,312.0,203.0,199.0
1974,556.0,316.0,206.0,201.0
1975,553.0,313.0,205.0,202.0
1976,549.0,307.0,204.0,200.0
1977,539.0,305.0,200.0,199.0
1978,532.0,308.0,195.0,195.0
1979,536.0,310.0,193.0,193.0
1980,542.0,310.0,193.0,192.0
1981,546.0,310.0,196.0,193.0
1982,550.0,308.0,199.0,194.0
1983,552.0,305.0,200.0,196.0
1984,547.0,302.0,198.0,196.0
1985,545.0,297.0,194.0,194.0
1986,550.0,297.0,193.0,192.0
1987,554.0,303.0,196.0,193.0
1988,556.0,310.0,199.0,194.0
1989,556.0,314.0,202.0,196.0
1990,555.0,315.0,202.0,197.0
1991,552.0,310.0,200.0,197.0
1992,543.0,305.0,198.0,196.0
1993,534.0,308.0,194.0,193.0
1994,535.0,309.0,191.0,190.0
1995,540.0,310.0,191.0,190.0
1996,544.0,310.0,194.0,190.0
1997,549.0,309.0,197.0,192.0
1998,552.0,306.0,200.0,195.0
1999,551.0,304.0,201.0,197.0
2000,545.0,299.0,199.0,196.0
2001,549.0,297.0,196.0,195.0
2002,553.0,301.0,196.0,195.0
2003,556.0,307.0,199.0,196.0
2004,556.0,314.0,203.0,198.0
2005,555.0,315.0,204.0,199.0
2006,552.0,311.0,203.0,200.0
2007,547.0,305.0,200.0,199.0
2008,536.0,307.0,196.0,196.0
2009,533.0,309.0,192.0,192.0
2010,538.0,311.0,191.0,191.0
2011,543.0,310.0,193.0,191.0
2012,548.0,309.0,196.0,192.0
2013,551.0,308.0,200.0,195.0
2014,552.0,306.0,202.0,197.0
2015,545.0,301.0,199.0,197.0
2016,547.0,297.0,196.0,195.0
2017,552.0,299.0,195.0,195.0
2018,556.0,306.0,199.0,196.0
2019,556.0,312.0,201.0,197.0
2020,556.0,315.0,204.0,199.0
2021,554.0,313.0,204.0,200.0
2022,549.0,307.0,203.0,200.0
2023,539.0,306.0,198.0,198.0
2024,533.0,309.0,195.0,194.0
2025,536.0,311.0,193.0,192.0
2026,541.0,310.0,193.0,192.0
2027,545.0,310.0,197.0,193.0
2028,551.0,309.0,201.0,195.0
2029,552.0,307.0,203.0,197.0
2030,547.0,303.0,203.0,199.0
2031,546.0,298.0,199.0,198.0
2032,551.0,298.0,198.0,198.0
2033,555.0,304.0,200.0,198.0
2034,557.0,311.0,203.0,200.0
2035,556.0,315.0,206.0,202.0
2036,554.0,316.0,207.0,203.0
2037,551.0,310.0,207.0,203.0
2038,543.0,306.0,204.0,202.0
2039,534.0,308.0,199.0,199.0
2040,534.0,310.0,196.0,196.0
2041,540.0,312.0,196.0,195.0
2042,544.0,310.0,198.0,194.0
2043,549.0,309.0,201.0,197.0
2044,552.0,307.0,203.0,199.0
2045,551.0,304.0,205.0,201.0
2046,544.0,299.0,202.0,201.0
2047,549.0,298.0,201.0,199.0
2048,553.0,302.0,201.0,199.0
2049,555.0,309.0,204.0,201.0
2050,556.0,315.0,207.0,203.0
2051,555.0,316.0,209.0,204.0
2052,552.0,313.0,208.0,205.0
2053,546.0,307.0,205.0,203.0
2054,536.0,307.0,201.0,201.0
2055,532.0,310.0,198.0,197.0
2056,538.0,311.0,196.0,195.0
2057,542.0,312.0,197.0,196.0
2058,547.0,310.0,200.0,197.0
2059,551.0,309.0,203.0,199.0
2060,552.0,306.0,203.0,200.0
2061,544.0,302.0,201.0,199.0
2062,547.0,298.0,198.0,198.0
2063,552.0,300.0,198.0,196.0
2064,555.0,307.0,201.0,197.0
2065,557.0,313.0,204.0,199.0
2066,555.0,315.0,206.0,202.0
2067,553.0,314.0,207.0,202.0
2068,548.0,307.0,205.0,202.0
2069,539.0,305.0,201.0,200.0
2070,533.0,309.0,196.0,196.0
2071,536.0,310.0,194.0,194.0
2072,541.0,311.0,195.0,193.0
2073,546.0,310.0,197.0,194.0
2074,549.0,308.0,201.0,196.0
2075,551.0,306.0,204.0,199.0
2076,547.0,303.0,205.0,200.0
2077,546.0,298.0,202.0,200.0
2078,550.0,297.0,199.0,199.0
2079,555.0,303.0,201.0,199.0
2080,556.0,311.0,204.0,200.0
2081,556.0,315.0,207.0,202.0
2082,554.0,315.0,207.0,204.0
2083,551.0,310.0,206.0,203.0
2084,544.0,306.0,203.0,202.0
2085,534.0,308.0,198.0,199.0
2086,533.0,310.0,196.0,196.0
2087,539.0,311.0,197.0,195.0
2088,544.0,310.0,199.0,195.0
2089,548.0,308.0,202.0,197.0
2090,551.0,307.0,205.0,200.0
2091,551.0,304.0,206.0,202.0
2092,544.0,300.0,203.0,201.0
2093,548.0,298.0,201.0,199.0
2094,553.0,301.0,202.0,200.0
2095,555.0,309.0,204.0,200.0
2096,556.0,313.0,208.0,203.0
2097,554.0,316.0,208.0,205.0
2098,552.0,312.0,209.0,205.0
2099,547.0,306.0,207.0,204.0
2100,537.0,306.0,203.0,202.0
2101,533.0,310.0,198.0,199.0
2102,538.0,311.0,197.0,197.0
2103,542.0,311.0,198.0,197.0
2104,548.0,310.0,201.0,197.0
2105,551.0,309.0,203.0,198.0
2106,551.0,305.0,204.0,200.0
2107,544.0,301.0,204.0,200.0
2108,547.0,297.0,201.0,199.0
2109,552.0,299.0,200.0,199.0
2110,556.0,306.0,202.0,199.0
2111,556.0,313.0,206.0,201.0
2112,555.0,316.0,208.0,203.0
2113,553.0,314.0,207.0,204.0
2114,549.0,308.0,206.0,204.0
2115,539.0,306.0,203.0,202.0
2116,533.0,310.0,198.0,198.0
2117,536.0,311.0,196.0,196.0
2118,541.0,311.0,197.0,195.0
2119,546.0,310.0,200.0,196.0
2120,549.0,309.0,204.0,199.0
2121,552.0,307.0,206.0,200.0
2122,547.0,304.0,205.0,201.0
2123,545.0,298.0,201.0,200.0
2124,549.0,298.0,199.0,199.0
2125,554.0,304.0,202.0,200.0
2126,556.0,310.0,206.0,202.0
2127,556.0,315.0,209.0,204.0
2128,554.0,315.0,209.0,205.0
2129,550.0,309.0,208.0,205.0
2130,543.0,305.0,205.0,204.0
2131,534.0,308.0,200.0,200.0
2132,534.0,310.0,197.0,197.0
2133,539.0,311.0,196.0,195.0
2134,543.0,310.0,198.0,196.0
2135,548.0,308.0,203.0,198.0
2136,551.0,306.0,205.0,200.0
2137,550.0,304.0,207.0,202.0
2138,543.0,299.0,205.0,202.0
2139,549.0,297.0,202.0,200.0
2140,554.0,302.0,202.0,200.0
2141,556.0,309.0,204.0,202.0
2142,555.0,314.0,208.0,203.0
2143,554.0,315.0,209.0,205.0
2144,551.0,312.0,209.0,206.0
2145,546.0,306.0,207.0,204.0
2146,536.0,308.0,201.0,201.0
2147,532.0,310.0,197.0,198.0
2148,537.0,311.0,196.0,195.0
2149,543.0,311.0,196.0,194.0
2150,548.0,310.0,201.0,196.0
2151,550.0,308.0,203.0,198.0
2152,551.0,306.0,205.0,200.0
2153,544.0,301.0,203.0,201.0
2154,547.0,297.0,200.0,199.0
2155,552.0,299.0,200.0,198.0
2156,555.0,307.0,203.0,200.0
2157,557.0,313.0,206.0,202.0
2158,556.0,316.0,208.0,204.0
2159,552.0,315.0,210.0,205.0
2160,548.0,309.0,209.0,205.0
2161,538.0,307.0,204.0,203.0
2162,532.0,310.0,199.0,199.0
2163,536.0,312.0,198.0,197.0
2164,541.0,312.0,198.0,197.0
2165,545.0,311.0,202.0,198.0
2166,549.0,310.0,204.0,200.0
2167,551.0,308.0,207.0,202.0
2168,546.0,304.0,207.0,204.0
2169,545.0,300.0,204.0,202.0
2170,550.0,299.0,202.0,201.0
2171,554.0,305.0,205.0,202.0
2172,556.0,312.0,207.0,203.0
2173,556.0,316.0,209.0,205.0
2174,554.0,316.0,210.0,206.0
2175,550.0,310.0,209.0,206.0
2176,543.0,306.0,206.0,205.0
2177,533.0,309.0,201.0,201.0
2178,534.0,310.0,198.0,198.0
2179,539.0,311.0,197.0,197.0
2180,544.0,311.0,199.0,196.0
2181,548.0,310.0,201.0,197.0
2182,552.0,307.0,204.0,199.0
2183,550.0,305.0,204.0,201.0
2184,544.0,300.0,201.0,199.0
2185,548.0,297.0,198.0,198.0
2186,553.0,302.0,200.0,198.0
2187,556.0,310.0,202.0,199.0
2188,556.0,314.0,206.0,201.0
2189,554.0,316.0,208.0,203.0
2190,551.0,312.0,207.0,204.0
2191,546.0,306.0,205.0,203.0
2192,536.0,308.0,201.0,200.0
2193,532.0,311.0,197.0,197.0
2194,537.0,311.0,196.0,195.0
2195,542.0,311.0,197.0,195.0
2196,547.0,309.0,200.0,196.0
2197,550.0,308.0,204.0,199.0
2198,551.0,305.0,206.0,201.0
2199,544.0,301.0,205.0,202.0
2200,547.0,298.0,201.0,200.0
2201,552.0,299.0,199.0,199.0
2202,555.0,306.0,202.0,199.0
2203,556.0,312.0,205.0,201.0
2204,555.0,316.0,207.0,203.0
2205,552.0,314.0,207.0,203.0
2206,549.0,307.0,206.0,203.0
2207,539.0,306.0,202.0,201.0
2208,532.0,309.0,197.0,198.0
2209,535.0,310.0,196.0,195.0
2210,540.0,310.0,196.0,193.0
2211,545.0,310.0,198.0,194.0
2212,550.0,308.0,200.0,197.0
2213,552.0,305.0,203.0,199.0
2214,547.0,303.0,203.0,199.0
2215,546.0,298.0,200.0,198.0
2216,551.0,298.0,198.0,197.0
2217,554.0,304.0,202.0,198.0
2218,556.0,311.0,203.0,199.0
2219,556.0,315.0,207.0,202.0
2220,554.0,315.0,208.0,202.0
2221,550.0,310.0,207.0,203.0
2222,543.0,306.0,204.0,202.0
2223,533.0,307.0,199.0,199.0
2224,533.0,309.0,195.0,196.0
2225,539.0,311.0,195.0,194.0
2226,544.0,311.0,196.0,194.0
2227,549.0,309.0,200.0,196.0
2228,552.0,307.0,204.0,199.0
2229,551.0,305.0,205.0,201.0
2230,545.0,299.0,204.0,200.0
2231,549.0,297.0,200.0,198.0
2232,553.0,301.0,200.0,198.0
2233,556.0,308.0,203.0,199.0
2234,557.0,314.0,206.0,202.0
2235,555.0,316.0,207.0,203.0
2236,552.0,312.0,207.0,203.0
2237,547.0,306.0,205.0,203.0
2238,536.0,307.0,201.0,200.0
2239,533.0,310.0,198.0,198.0
2240,537.0,310.0,196.0,195.0
2241,542.0,310.0,198.0,195.0
2242,547.0,309.0,200.0,196.0
2243,551.0,308.0,203.0,199.0
2244,552.0,305.0,204.0,200.0
2245,544.0,302.0,203.0,200.0
2246,547.0,297.0,199.0,198.0
2247,551.0,299.0,200.0,198.0
2248,556.0,306.0,203.0,200.0
2249,556.0,312.0,205.0,201.0
2250,556.0,316.0,207.0,203.0
2251,553.0,314.0,207.0,204.0
2252,549.0,308.0,206.0,203.0
2253,540.0,306.0,202.0,202.0
2254,533.0,308.0,199.0,198.0
2255,536.0,310.0,196.0,196.0
2256,541.0,311.0,197.0,195.0
2257,546.0,311.0,200.0,196.0
2258,550.0,309.0,203.0,198.0
2259,552.0,307.0,204.0,200.0
2260,548.0,304.0,205.0,200.0
2261,545.0,298.0,201.0,200.0
2262,550.0,298.0,198.0,199.0
2263,555.0,303.0,199.0,199.0
2264,556.0,312.0,204.0,200.0
2265,556.0,315.0,206.0,200.0
2266,554.0,316.0,207.0,202.0
2267,550.0,311.0,206.0,202.0
2268,544.0,306.0,201.0,200.0
2269,534.0,309.0,196.0,197.0
2270,533.0,310.0,194.0,194.0
2271,538.0,311.0,193.0,192.0
2272,544.0,311.0,196.0,193.0
2273,549.0,309.0,200.0,194.0
2274,552.0,308.0,202.0,197.0
2275,551.0,305.0,204.0,199.0
2276,543.0,301.0,203.0,200.0
2277,549.0,297.0,199.0,198.0
2278,553.0,301.0,200.0,197.0
2279,556.0,309.0,201.0,198.0
2280,556.0,315.0,203.0,200.0
2281,556.0,317.0,205.0,201.0
2282,553.0,314.0,205.0,202.0
2283,548.0,307.0,202.0,201.0
2284,537.0,307.0,198.0,198.0
2285,533.0,310.0,194.0,196.0
2286,538.0,311.0,195.0,194.0
2287,543.0,312.0,196.0,194.0
2288,548.0,310.0,200.0,196.0
2289,551.0,310.0,202.0,197.0
2290,552.0,306.0,203.0,199.0
2291,545.0,303.0,202.0,199.0
2292,547.0,298.0,198.0,197.0
2293,552.0,300.0,197.0,197.0
2294,555.0,307.0,199.0,197.0
2295,556.0,314.0,203.0,199.0
2296,556.0,317.0,204.0,200.0
2297,553.0,316.0,205.0,200.0
2298,550.0,310.0,203.0,200.0
2299,540.0,308.0,199.0,197.0
2300,534.0,311.0,194.0,195.0
2301,536.0,312.0,193.0,192.0
2302,542.0,312.0,193.0,191.0
2303,547.0,312.0,196.0,192.0
2304,550.0,310.0,197.0,193.0
2305,552.0,308.0,198.0,194.0
2306,548.0,305.0,197.0,194.0
2307,546.0,299.0,194.0,192.0
2308,551.0,300.0,193.0,191.0
2309,555.0,305.0,194.0,192.0
2310,557.0,313.0,198.0,194.0
2311,557.0,317.0,200.0,196.0
2312,556.0,317.0,201.0,197.0
2313,552.0,312.0,199.0,196.0
2314,545.0,308.0,196.0,195.0
2315,535.0,311.0,193.0,192.0
2316,536.0,313.0,190.0,190.0
2317,540.0,313.0,191.0,189.0
2318,546.0,313.0,194.0,190.0
2319,550.0,312.0,198.0,192.0
2320,552.0,310.0,200.0,194.0
2321,552.0,307.0,201.0,196.0
2322,545.0,303.0,197.0,195.0
2323,550.0,301.0,195.0,195.0
2324,555.0,304.0,196.0,194.0
2325,557.0,312.0,200.0,196.0
2326,558.0,317.0,202.0,198.0
2327,557.0,318.0,203.0,200.0
2328,553.0,315.0,204.0,200.0
2329,549.0,310.0,201.0,199.0
2330,537.0,312.0,196.0,197.0
2331,534.0,313.0,193.0,193.0
2332,539.0,315.0,191.0,191.0
2333,544.0,315.0,192.0,190.0
2334,550.0,313.0,194.0,191.0
2335,553.0,313.0,196.0,192.0
2336,553.0,310.0,197.0,193.0
2337,545.0,306.0,194.0,192.0
2338,549.0,301.0,191.0,190.0
2339,553.0,303.0,192.0,190.0
2340,557.0,310.0,194.0,191.0
2341,559.0,318.0,197.0,193.0
2342,557.0,320.0,199.0,195.0
2343,554.0,320.0,199.0,196.0
2344,550.0,313.0,197.0,195.0
2345,540.0,311.0,192.0,192.0
2346,534.0,315.0,189.0,189.0
2347,538.0,316.0,187.0,186.0
2348,543.0,316.0,187.0,185.0
2349,548.0,315.0,191.0,187.0
2350,552.0,314.0,194.0,189.0
2351,553.0,311.0,196.0,192.0
2352,549.0,308.0,196.0,193.0
2353,548.0,303.0,193.0,191.0
2354,552.0,304.0,191.0,190.0
2355,556.0,310.0,193.0,190.0
2356,558.0,318.0,196.0,192.0
2357,558.0,323.0,198.0,195.0
2358,556.0,321.0,200.0,196.0
2359,552.0,316.0,199.0,196.0
2360,544.0,312.0,196.0,194.0
2361,536.0,315.0,191.0,191.0
2362,537.0,317.0,189.0,189.0
2363,542.0,319.0,189.0,188.0
2364,547.0,318.0,192.0,189.0
2365,551.0,317.0,195.0,191.0
2366,553.0,314.0,198.0,192.0
2367,552.0,311.0,199.0,194.0
2368,546.0,306.0,196.0,194.0
2369,551.0,305.0,194.0,193.0
2370,555.0,310.0,195.0,193.0
2371,558.0,318.0,196.0,193.0
2372,558.0,324.0,199.0,195.0
2373,557.0,325.0,200.0,197.0
2374,554.0,322.0,200.0,197.0
2375,548.0,316.0,198.0,196.0
2376,537.0,318.0,193.0,193.0
2377,536.0,320.0,190.0,190.0
2378,540.0,322.0,189.0,189.0
2379,546.0,322.0,192.0,190.0
2380,550.0,321.0,196.0,192.0
2381,553.0,319.0,199.0,194.0
2382,553.0,316.0,201.0,196.0
2383,545.0,312.0,200.0,196.0
2384,548.0,308.0,195.0,194.0
2385,553.0,311.0,196.0,193.0
2386,557.0,319.0,198.0,194.0
2387,558.0,326.0,201.0,196.0
2388,558.0,329.0,203.0,199.0
2389,555.0,326.0,203.0,200.0
2390,551.0,320.0,202.0,199.0
2391,541.0,319.0,198.0,198.0
2392,535.0,323.0,194.0,195.0
2393,538.0,324.0,192.0,192.0
2394,543.0,324.0,193.0,191.0
2395,548.0,323.0,195.0,191.0
2396,552.0,322.0,198.0,193.0
2397,554.0,320.0,198.0,194.0
2398,549.0,316.0,197.0,194.0
2399,548.0,311.0,194.0,193.0
2400,552.0,312.0,192.0,192.0
2401,557.0,319.0,194.0,192.0
2402,559.0,327.0,198.0,194.0
2403,558.0,332.0,201.0,196.0
2404,556.0,331.0,201.0,197.0
2405,552.0,326.0,200.0,197.0
2406,545.0,322.0,197.0,195.0
2407,536.0,325.0,193.0,193.0
2408,538.0,327.0,190.0,190.0
2409,542.0,328.0,190.0,189.0
2410,547.0,328.0,192.0,189.0
2411,552.0,327.0,195.0,191.0
2412,554.0,324.0,197.0,192.0
2413,553.0,321.0,197.0,193.0
2414,547.0,316.0,193.0,192.0
2415,552.0,316.0,191.0,191.0
2416,556.0,321.0,192.0,191.0
2417,558.0,330.0,195.0,192.0
2418,558.0,336.0,197.0,193.0
2419,557.0,337.0,199.0,195.0
2420,554.0,334.0,199.0,195.0
2421,549.0,328.0,196.0,194.0
2422,538.0,328.0,191.0,191.0
2423,535.0,332.0,189.0,188.0
2424,541.0,333.0,187.0,187.0
2425,545.0,334.0,190.0,187.0
2426,551.0,333.0,193.0,189.0
2427,553.0,332.0,197.0,192.0
2428,554.0,329.0,198.0,193.0
2429,546.0,325.0,196.0,193.0
2430,549.0,320.0,193.0,192.0
2431,554.0,324.0,192.0,191.0
2432,558.0,331.0,195.0,192.0
2433,558.0,338.0,197.0,193.0
2434,558.0,342.0,199.0,194.0
2435,555.0,339.0,199.0,196.0
2436,551.0,333.0,198.0,195.0
2437,541.0,331.0,194.0,193.0
2438,535.0,335.0,191.0,190.0
2439,538.0,336.0,189.0,188.0
2440,543.0,337.0,190.0,188.0
2441,549.0,338.0,194.0,190.0
2442,553.0,336.0,197.0,192.0
2443,554.0,333.0,199.0,194.0
2444,549.0,330.0,199.0,195.0
2445,548.0,324.0,196.0,194.0
2446,552.0,325.0,194.0,193.0
2447,557.0,332.0,196.0,193.0
2448,559.0,340.0,199.0,195.0
2449,559.0,345.0,202.0,197.0
2450,556.0,344.0,202.0,198.0
2451,552.0,339.0,201.0,198.0
2452,545.0,334.0,198.0,197.0
2453,537.0,337.0,195.0,194.0
2454,537.0,339.0,191.0,191.0
2455,542.0,341.0,191.0,189.0
2456,546.0,341.0,193.0,190.0
2457,552.0,340.0,196.0,192.0
2458,554.0,338.0,198.0,194.0
2459,553.0,335.0,200.0,196.0
2460,547.0,329.0,197.0,195.0
2461,551.0,327.0,194.0,194.0
2462,555.0,332.0,195.0,194.0
2463,558.0,340.0,198.0,194.0
2464,559.0,347.0,200.0,196.0
2465,557.0,348.0,202.0,198.0
2466,554.0,344.0,202.0,198.0
2467,549.0,337.0,199.0,197.0
2468,539.0,337.0,195.0,195.0
2469,536.0,341.0,192.0,192.0
2470,540.0,343.0,189.0,189.0
2471,545.0,343.0,190.0,189.0
2472,550.0,342.0,193.0,189.0
2473,553.0,341.0,196.0,191.0
2474,554.0,338.0,197.0,192.0
2475,548.0,334.0,195.0,192.0
2476,550.0,329.0,192.0,191.0
2477,555.0,332.0,192.0,190.0
2478,558.0,339.0,194.0,191.0
2479,559.0,346.0,197.0,193.0
2480,558.0,349.0,199.0,194.0
2481,555.0,347.0,200.0,196.0
2482,552.0,340.0,198.0,195.0
2483,542.0,337.0,195.0,194.0
2484,536.0,340.0,191.0,190.0
2485,538.0,343.0,189.0,188.0
2486,544.0,344.0,189.0,187.0
2487,548.0,342.0,191.0,188.0
2488,553.0,341.0,193.0,189.0
2489,555.0,339.0,195.0,190.0
2490,550.0,335.0,195.0,191.0
2491,548.0,330.0,191.0,189.0
2492,554.0,331.0,190.0,189.0
2493,557.0,336.0,192.0,190.0
2494,558.0,343.0,195.0,191.0
2495,558.0,347.0,197.0,193.0
2496,556.0,347.0,197.0,194.0
2497,553.0,342.0,197.0,194.0
2498,547.0,336.0,194.0,192.0
2499,537.0,338.0,189.0,190.0
2500,536.0,340.0,188.0,187.0
2501,542.0,341.0,186.0,186.0
2502,547.0,342.0,189.0,186.0
2503,551.0,340.0,190.0,187.0
2504,554.0,338.0,192.0,188.0
2505,554.0,335.0,191.0,187.0
2506,546.0,330.0,186.0,186.0
2507,551.0,327.0,185.0,185.0
2508,555.0,331.0,187.0,185.0
2509,559.0,339.0,189.0,187.0
2510,559.0,344.0,193.0,188.0
2511,557.0,346.0,193.0,189.0
2512,555.0,342.0,192.0,189.0
2513,550.0,336.0,191.0,189.0
2514,539.0,335.0,186.0,186.0
2515,536.0,338.0,184.0,183.0
2516,541.0,340.0,183.0,181.0
2517,545.0,339.0,184.0,182.0
2518,550.0,339.0,188.0,184.0
2519,553.0,337.0,190.0,186.0
2520,553.0,334.0,192.0,187.0
2521,547.0,330.0,191.0,188.0
2522,550.0,325.0,188.0,185.0
2523,553.0,327.0,187.0,185.0
2524,557.0,333.0,189.0,186.0
2525,559.0,339.0,191.0,187.0
2526,558.0,342.0,193.0,189.0
2527,556.0,341.0,192.0,190.0
2528,551.0,335.0,191.0,189.0
2529,543.0,332.0,188.0,186.0
2530,535.0,334.0,183.0,184.0
2531,539.0,337.0,181.0,181.0
2532,544.0,338.0,182.0,180.0
2533,548.0,336.0,185.0,181.0
2534,552.0,335.0,189.0,184.0
2535,554.0,332.0,192.0,187.0
2536,551.0,329.0,193.0,189.0
2537,547.0,323.0,191.0,188.0
2538,552.0,322.0,187.0,187.0
2539,556.0,327.0,189.0,187.0
2540,559.0,335.0,191.0,188.0
2541,559.0,340.0,194.0,189.0
2542,557.0,340.0,194.0,190.0
2543,554.0,335.0,194.0,191.0
2544,547.0,329.0,191.0,190.0
2545,537.0,331.0,187.0,186.0
2546,537.0,333.0,183.0,184.0
2547,542.0,334.0,182.0,181.0
2548,546.0,333.0,183.0,181.0
2549,550.0,332.0,187.0,183.0
2550,554.0,330.0,188.0,184.0
2551,553.0,328.0,189.0,185.0
2552,547.0,322.0,187.0,184.0
2553,550.0,318.0,183.0,183.0
2554,555.0,322.0,184.0,183.0
2555,559.0,329.0,186.0,183.0
2556,558.0,335.0,189.0,185.0
2557,558.0,337.0,191.0,186.0
2558,555.0,333.0,191.0,187.0
2559,550.0,327.0,189.0,186.0
2560,540.0,326.0,184.0,184.0
2561,535.0,328.0,181.0,181.0
2562,540.0,330.0,180.0,179.0
2563,545.0,330.0,180.0,179.0
2564,549.0,329.0,184.0,180.0
2565,553.0,327.0,187.0,182.0
2566,554.0,324.0,189.0,185.0
2567,547.0,321.0,189.0,186.0
2568,549.0,316.0,186.0,185.0
2569,554.0,317.0,185.0,184.0
2570,558.0,323.0,187.0,185.0
2571,558.0,329.0,190.0,186.0
2572,558.0,332.0,192.0,188.0
2573,556.0,332.0,192.0,188.0
2574,552.0,325.0,191.0,188.0
2575,544.0,321.0,187.0,186.0
2576,535.0,324.0,183.0,184.0
2577,538.0,326.0,181.0,182.0
2578,542.0,327.0,183.0,180.0
2579,547.0,326.0,184.0,181.0
2580,551.0,323.0,187.0,182.0
2581,553.0,321.0,189.0,185.0
2582,551.0,318.0,191.0,186.0
2583,547.0,313.0,188.0,186.0
2584,552.0,312.0,184.0,184.0
2585,557.0,316.0,186.0,185.0
2586,559.0,324.0,189.0,186.0
2587,559.0,327.0,190.0,187.0
2588,557.0,327.0,192.0,189.0
2589,553.0,323.0,191.0,188.0
2590,547.0,317.0,189.0,187.0
2591,537.0,319.0,185.0,185.0
2592,536.0,321.0,181.0,182.0
2593,541.0,323.0,181.0,180.0
2594,545.0,321.0,182.0,180.0
2595,550.0,320.0,184.0,181.0
2596,553.0,318.0,186.0,182.0
2597,553.0,315.0,187.0,183.0
2598,546.0,312.0,185.0,183.0
2599,550.0,308.0,182.0,181.0
2600,555.0,310.0,182.0,181.0
2601,558.0,316.0,185.0,182.0
2602,558.0,321.0,188.0,184.0
2603,558.0,324.0,190.0,186.0
2604,555.0,321.0,190.0,186.0
2605,550.0,314.0,188.0,186.0
2606,540.0,313.0,183.0,183.0
2607,535.0,316.0,181.0,181.0
2608,539.0,317.0,179.0,178.0
2609,543.0,317.0,180.0,178.0
2610,549.0,315.0,182.0,178.0
2611,553.0,314.0,184.0,180.0
2612,554.0,311.0,186.0,182.0
2613,548.0,308.0,185.0,183.0
2614,548.0,303.0,183.0,181.0
2615,553.0,304.0,182.0,180.0
2616,557.0,309.0,183.0,181.0
2617,558.0,316.0,185.0,182.0
2618,559.0,319.0,187.0,183.0
2619,556.0,318.0,188.0,185.0
2620,552.0,312.0,187.0,184.0
2621,543.0,308.0,184.0,183.0
2622,536.0,311.0,180.0,180.0
2623,537.0,313.0,178.0,178.0
2624,542.0,312.0,177.0,177.0
2625,547.0,312.0,179.0,177.0
2626,552.0,311.0,182.0,179.0
2627,553.0,309.0,185.0,180.0
2628,551.0,305.0,186.0,182.0
2629,546.0,299.0,183.0,181.0
2630,551.0,298.0,181.0,180.0
2631,556.0,303.0,182.0,179.0
2632,558.0,310.0,183.0,181.0
2633,558.0,314.0,186.0,183.0
2634,556.0,315.0,187.0,184.0
2635,553.0,311.0,187.0,184.0
2636,548.0,305.0,185.0,183.0
2637,538.0,306.0,181.0,181.0
2638,535.0,309.0,178.0,178.0
2639,541.0,310.0,177.0,176.0
2640,546.0,310.0,178.0,177.0
2641,551.0,308.0,181.0,177.0
2642,553.0,306.0,183.0,179.0
2643,553.0,304.0,187.0,182.0
2644,546.0,300.0,185.0,181.0
2645,549.0,295.0,181.0,180.0
2646,554.0,298.0,181.0,180.0
2647,558.0,305.0,183.0,181.0
2648,559.0,310.0,187.0,183.0
2649,557.0,312.0,188.0,184.0
2650,555.0,309.0,189.0,185.0
2651,550.0,302.0,187.0,184.0
2652,541.0,302.0,183.0,182.0
2653,535.0,304.0,180.0,180.0
2654,539.0,306.0,178.0,177.0
2655,543.0,306.0,178.0,176.0
2656,549.0,305.0,180.0,177.0
2657,552.0,304.0,183.0,178.0
2658,554.0,301.0,182.0,179.0
2659,548.0,297.0,182.0,179.0
2660,548.0,292.0,178.0,177.0
2661,553.0,293.0,177.0,176.0
2662,557.0,299.0,178.0,176.0
2663,559.0,305.0,181.0,178.0
2664,558.0,308.0,184.0,179.0
2665,556.0,307.0,184.0,180.0
2666,552.0,302.0,183.0,180.0
2667,544.0,298.0,179.0,177.0
2668,536.0,300.0,175.0,175.0
2669,537.0,302.0,173.0,172.0
2670,542.0,303.0,174.0,172.0
2671,547.0,303.0,175.0,173.0
2672,551.0,301.0,179.0,175.0
2673,554.0,300.0,183.0,177.0
2674,553.0,296.0,183.0,179.0
2675,547.0,291.0,182.0,179.0
2676,551.0,289.0,178.0,178.0
2677,556.0,294.0,179.0,178.0
2678,558.0,302.0,182.0,179.0
2679,558.0,305.0,185.0,180.0
2680,557.0,306.0,185.0,182.0
2681,554.0,303.0,186.0,182.0
2682,548.0,297.0,183.0,181.0
2683,538.0,298.0,179.0,179.0
2684,536.0,301.0,177.0,176.0
2685,540.0,301.0,176.0,175.0
2686,545.0,301.0,178.0,175.0
2687,551.0,301.0,181.0,176.0
2688,554.0,299.0,184.0,179.0
2689,553.0,296.0,185.0,180.0
2690,547.0,293.0,184.0,181.0
2691,549.0,288.0,180.0,179.0
2692,554.0,292.0,180.0,179.0
2693,558.0,298.0,182.0,179.0
2694,558.0,303.0,185.0,180.0
2695,558.0,306.0,186.0,182.0
2696,555.0,303.0,186.0,183.0
2697,551.0,297.0,184.0,182.0
2698,541.0,297.0,182.0,180.0
2699,536.0,299.0,177.0,177.0
2700,539.0,300.0,176.0,175.0
2701,543.0,301.0,177.0,175.0
2702,548.0,300.0,179.0,176.0
2703,553.0,299.0,182.0,177.0
2704,554.0,296.0,183.0,179.0
2705,549.0,293.0,184.0,180.0
2706,548.0,287.0,179.0,179.0
2707,553.0,289.0,179.0,177.0
2708,557.0,295.0,181.0,178.0
2709,559.0,302.0,184.0,179.0
2710,559.0,306.0,186.0,181.0
2711,556.0,305.0,186.0,183.0
2712,553.0,301.0,187.0,183.0
2713,545.0,296.0,184.0,182.0
2714,536.0,299.0,180.0,180.0
2715,537.0,301.0,177.0,177.0
2716,542.0,302.0,178.0,176.0
2717,547.0,302.0,180.0,177.0
2718,552.0,301.0,183.0,178.0
2719,554.0,299.0,185.0,180.0
2720,553.0,296.0,185.0,182.0
2721,546.0,291.0,183.0,181.0
2722,551.0,291.0,180.0,179.0
2723,555.0,296.0,182.0,180.0
2724,558.0,303.0,185.0,181.0
2725,558.0,309.0,188.0,183.0
2726,557.0,311.0,190.0,185.0
2727,554.0,308.0,188.0,185.0
2728,549.0,302.0,186.0,184.0
2729,538.0,301.0,181.0,181.0
2730,536.0,305.0,179.0,178.0
2731,541.0,306.0,177.0,177.0
2732,546.0,308.0,178.0,176.0
2733,551.0,308.0,181.0,177.0
2734,553.0,307.0,184.0,179.0
2735,554.0,304.0,184.0,180.0
2736,547.0,299.0,183.0,180.0
2737,550.0,298.0,179.0,178.0
2738,555.0,302.0,179.0,178.0
2739,558.0,309.0,181.0,178.0
2740,559.0,316.0,185.0,180.0
2741,558.0,320.0,187.0,182.0
2742,555.0,319.0,187.0,184.0
2743,551.0,314.0,186.0,183.0
2744,542.0,309.0,182.0,181.0
2745,536.0,310.0,178.0,178.0
2746,539.0,314.0,176.0,176.0
2747,545.0,316.0,175.0,175.0
2748,549.0,318.0,178.0,176.0
2749,553.0,318.0,180.0,177.0
2750,554.0,317.0,183.0,179.0
2751,550.0,314.0,182.0,179.0
2752,548.0,309.0,179.0,177.0
2753,553.0,312.0,178.0,177.0
2754,558.0,318.0,180.0,178.0
2755,560.0,323.0,183.0,179.0
2756,559.0,327.0,186.0,181.0
2757,557.0,327.0,186.0,183.0
2758,553.0,323.0,187.0,183.0
2759,547.0,317.0,183.0,182.0
2760,538.0,313.0,179.0,179.0
2761,537.0,315.0,176.0,177.0
2762,542.0,319.0,177.0,176.0
2763,547.0,322.0,178.0,175.0
2764,552.0,323.0,181.0,177.0
2765,554.0,322.0,183.0,179.0
2766,554.0,321.0,183.0,180.0
2767,547.0,315.0,181.0,179.0
2768,551.0,313.0,179.0,178.0
2769,556.0,315.0,180.0,178.0
2770,558.0,318.0,183.0,179.0
2771,559.0,319.0,185.0,181.0
2772,557.0,318.0,187.0,183.0
2773,554.0,315.0,187.0,183.0
2774,550.0,308.0,184.0,182.0
2775,539.0,304.0,180.0,180.0
2776,536.0,302.0,177.0,177.0
2777,541.0,305.0,176.0,175.0
2778,545.0,306.0,178.0,175.0
2779,550.0,307.0,180.0,177.0
2780,553.0,306.0,183.0,178.0
2781,554.0,305.0,185.0,180.0
2782,548.0,303.0,184.0,180.0
2783,550.0,296.0,180.0,180.0
2784,554.0,293.0,180.0,178.0
2785,558.0,293.0,183.0,180.0
2786,560.0,293.0,185.0,181.0
2787,559.0,291.0,187.0,183.0
2788,556.0,287.0,188.0,185.0
2789,552.0,281.0,187.0,185.0
2790,543.0,276.0,184.0,183.0
2791,536.0,275.0,180.0,180.0
2792,539.0,275.0,177.0,178.0
2793,544.0,275.0,177.0,176.0
2794,548.0,274.0,180.0,176.0
2795,552.0,272.0,182.0,178.0
2796,555.0,269.0,183.0,180.0
2797,552.0,266.0,183.0,180.0
2798,548.0,262.0,180.0,179.0
2799,553.0,257.0,179.0,178.0
2800,558.0,256.0,181.0,178.0
2801,560.0,255.0,184.0,180.0
2802,559.0,253.0,186.0,182.0
2803,557.0,250.0,187.0,183.0
2804,554.0,244.0,186.0,183.0
2805,548.0,240.0,184.0,183.0
2806,538.0,239.0,179.0,179.0
2807,537.0,238.0,177.0,177.0
2808,542.0,237.0,177.0,176.0
2809,547.0,234.0,178.0,176.0
2810,552.0,232.0,181.0,177.0
2811,555.0,229.0,182.0,179.0
2812,554.0,225.0,182.0,179.0
2813,547.0,221.0,179.0,178.0
2814,552.0,218.0,178.0,176.0
2815,556.0,215.0,178.0,176.0
2816,559.0,215.0,181.0,178.0
2817,559.0,214.0,184.0,179.0
2818,558.0,211.0,186.0,181.0
2819,555.0,208.0,185.0,182.0
2820,551.0,203.0,184.0,181.0
2821,540.0,202.0,180.0,179.0
2822,537.0,201.0,177.0,176.0
2823,541.0,199.0,175.0,175.0
2824,546.0,197.0,176.0,174.0
2825,551.0,195.0,178.0,175.0
2826,554.0,191.0,184.0,178.0
2827,555.0,189.0,188.0,181.0
2828,548.0,186.0,189.0,184.0
2829,550.0,182.0,187.0,183.0
2830,554.0,181.0,184.0,183.0
2831,558.0,181.0,186.0,184.0
2832,559.0,179.0,188.0,185.0
2833,559.0,178.0,190.0,187.0
2834,557.0,175.0,192.0,188.0
2835,553.0,171.0,191.0,188.0
2836,544.0,169.0,188.0,186.0
2837,537.0,168.0,185.0,185.0
2838,540.0,167.0,182.0,182.0
2839,545.0,165.0,181.0,181.0
2840,550.0,164.0,183.0,181.0
2841,554.0,161.0,185.0,182.0
2842,555.0,158.0,186.0,183.0
2843,553.0,156.0,186.0,182.0
2844,548.0,152.0,182.0,181.0
2845,553.0,150.0,181.0,180.0
2846,558.0,149.0,183.0,181.0
2847,561.0,149.0,186.0,183.0
2848,560.0,147.0,188.0,184.0
2849,558.0,144.0,190.0,186.0
2850,554.0,141.0,189.0,185.0
2851,549.0,139.0,185.0,184.0
2852,538.0,138.0,182.0,181.0
2853,538.0,136.0,179.0,179.0
2854,543.0,135.0,178.0,178.0
2855,548.0,132.0,180.0,178.0
2856,552.0,131.0,183.0,179.0
2857,555.0,128.0,185.0,181.0
2858,555.0,126.0,186.0,183.0
2859,548.0,124.0,185.0,183.0
2860,552.0,121.0,182.0,181.0
2861,557.0,119.0,182.0,181.0
2862,560.0,117.0,184.0,181.0
2863,560.0,114.0,187.0,183.0
2864,559.0,111.0,190.0,185.0
2865,556.0,109.0,189.0,186.0
2866,551.0,107.0,187.0,185.0
2867,542.0,105.0,183.0,182.0
2868,537.0,104.0,179.0,179.0
2869,541.0,101.0,176.0,177.0
2870,546.0,100.0,178.0,176.0
2871,552.0,97.0,180.0,177.0
2872,554.0,95.0,183.0,179.0
2873,556.0,93.0,185.0,181.0
2874,550.0,91.0,185.0,182.0
2875,549.0,89.0,182.0,181.0
2876,554.0,87.0,180.0,179.0
2877,558.0,85.0,182.0,179.0
2878,560.0,84.0,184.0,181.0
2879,560.0,82.0,186.0,182.0
2880,559.0,80.0,189.0,184.0
2881,555.0,78.0,188.0,184.0
2882,551.0,76.0,186.0,183.0
2883,540.0,74.0,182.0,181.0
2884,537.0,72.0,179.0,178.0
2885,541.0,71.0,178.0,177.0
2886,547.0,80.0,178.0,177.0
2887,551.0,89.0,180.0,177.0
2888,554.0,91.0,183.0,179.0
2889,556.0,91.0,185.0,181.0
2890,552.0,92.0,185.0,180.0
2891,549.0,92.0,180.0,179.0
2892,553.0,91.0,179.0,178.0
2893,558.0,90.0,181.0,178.0
2894,561.0,90.0,183.0,180.0
2895,561.0,89.0,185.0,181.0
2896,559.0,87.0,185.0,183.0
2897,556.0,87.0,186.0,183.0
2898,551.0,85.0,184.0,182.0
2899,541.0,84.0,180.0,179.0
2900,538.0,84.0,176.0,177.0
2901,541.0,82.0,176.0,175.0
2902,545.0,80.0,177.0,175.0
2903,550.0,79.0,179.0,176.0
2904,554.0,76.0,183.0,179.0
2905,556.0,75.0,187.0,181.0
2906,554.0,74.0,188.0,183.0
2907,548.0,73.0,186.0,183.0
2908,553.0,71.0,182.0,182.0
2909,557.0,69.0,183.0,181.0
2910,559.0,67.0,185.0,182.0
2911,560.0,66.0,187.0,183.0
2912,560.0,65.0,188.0,185.0
2913,557.0,63.0,189.0,186.0
2914,553.0,62.0,187.0,185.0
2915,542.0,61.0,184.0,183.0
2916,537.0,60.0,180.0,181.0
2917,541.0,58.0,179.0,179.0
2918,546.0,57.0,179.0,177.0
2919,549.0,55.0,182.0,178.0
2920,554.0,53.0,186.0,181.0
2921,555.0,53.0,189.0,184.0
2922,554.0,52.0,191.0,186.0
2923,548.0,50.0,189.0,186.0
2924,552.0,49.0,186.0,185.0
2925,558.0,48.0,186.0,185.0
2926,560.0,48.0,189.0,186.0
2927,560.0,46.0,192.0,188.0
2928,559.0,45.0,193.0,189.0
2929,556.0,43.0,194.0,189.0
2930,553.0,42.0,193.0,189.0
2931,544.0,43.0,188.0,187.0
2932,537.0,41.0,184.0,185.0
2933,540.0,40.0,182.0,182.0
2934,544.0,39.0,181.0,180.0
2935,548.0,38.0,183.0,180.0
2936,553.0,37.0,184.0,181.0
2937,555.0,36.0,186.0,182.0
2938,555.0,36.0,187.0,183.0
2939,548.0,35.0,184.0,182.0
2940,551.0,33.0,180.0,180.0
2941,556.0,34.0,182.0,179.0
2942,559.0,32.0,184.0,180.0
2943,560.0,32.0,186.0,182.0
2944,559.0,30.0,188.0,183.0
2945,557.0,30.0,188.0,184.0
2946,554.0,30.0,187.0,185.0
2947,546.0,28.0,184.0,183.0
2948,538.0,28.0,180.0,180.0
2949,537.0,27.0,177.0,177.0
2950,542.0,27.0,176.0,175.0
2951,548.0,26.0,178.0,175.0
2952,551.0,25.0,180.0,175.0
2953,555.0,24.0,182.0,177.0
2954,554.0,24.0,184.0,178.0
2955,549.0,24.0,181.0,179.0
2956,550.0,23.0,179.0,177.0
2957,554.0,24.0,178.0,177.0
2958,558.0,22.0,179.0,176.0
2959,559.0,21.0,182.0,178.0
2960,560.0,22.0,183.0,179.0
2961,557.0,20.0,185.0,180.0
2962,555.0,20.0,183.0,181.0
2963,550.0,19.0,181.0,180.0
2964,540.0,19.0,178.0,177.0
2965,536.0,19.0,175.0,175.0
2966,540.0,19.0,174.0,174.0
2967,545.0,17.0,177.0,174.0
2968,549.0,17.0,180.0,176.0
2969,553.0,16.0,182.0,178.0
2970,554.0,16.0,186.0,180.0
2971,550.0,16.0,188.0,183.0
2972,549.0,15.0,185.0,182.0
2973,552.0,16.0,182.0,181.0
2974,557.0,15.0,185.0,182.0
2975,558.0,15.0,187.0,183.0
2976,559.0,14.0,190.0,185.0
2977,557.0,14.0,191.0,186.0
2978,555.0,14.0,191.0,187.0
2979,550.0,13.0,190.0,187.0
2980,540.0,13.0,186.0,185.0
2981,536.0,12.0,182.0,182.0
2982,539.0,12.0,180.0,180.0
2983,544.0,12.0,180.0,179.0
2984,548.0,12.0,182.0,180.0
2985,552.0,11.0,183.0,180.0
2986,554.0,11.0,185.0,181.0
2987,553.0,11.0,185.0,182.0
2988,547.0,11.0,182.0,180.0
2989,551.0,11.0,180.0,179.0
2990,555.0,10.0,180.0,178.0
2991,558.0,10.0,183.0,180.0
2992,559.0,10.0,186.0,182.0
2993,558.0,10.0,188.0,183.0
2994,555.0,9.0,189.0,184.0
2995,552.0,9.0,187.0,184.0
2996,544.0,9.0,184.0,182.0
2997,536.0,9.0,180.0,179.0
2998,537.0,9.0,177.0,176.0
2999,542.0,8.0,176.0,175.0
3000,547.0,8.0,177.0,174.0
3001,552.0,9.0,180.0,176.0
3002,553.0,8.0,183.0,177.0
3003,554.0,7.0,184.0,179.0
3004,547.0,7.0,183.0,179.0
3005,549.0,7.0,180.0,178.0
3006,554.0,8.0,179.0,177.0
3007,557.0,7.0,181.0,177.0
3008,559.0,8.0,184.0,179.0
3009,559.0,7.0,188.0,181.0
3010,557.0,7.0,189.0,183.0
3011,555.0,7.0,188.0,183.0
3012,550.0,6.0,187.0,183.0
3013,540.0,6.0,182.0,181.0
3014,536.0,5.0,179.0,178.0
3015,540.0,6.0,178.0,177.0
3016,544.0,6.0,178.0,176.0
3017,549.0,6.0,181.0,178.0
3018,552.0,6.0,187.0,180.0
3019,555.0,6.0,191.0,184.0
3020,554.0,6.0,194.0,187.0
3021,548.0,5.0,195.0,188.0
3022,551.0,5.0,191.0,189.0
3023,556.0,5.0,188.0,187.0
3024,559.0,5.0,189.0,187.0
3025,560.0,5.0,190.0,187.0
3026,559.0,4.0,192.0,188.0
3027,557.0,4.0,193.0,188.0
3028,553.0,4.0,193.0,188.0
3029,547.0,4.0,191.0,187.0
3030,538.0,4.0,187.0,185.0
3031,538.0,3.0,183.0,182.0
3032,543.0,4.0,179.0,179.0
3033,547.0,3.0,178.0,177.0
3034,551.0,3.0,178.0,176.0
3035,554.0,4.0,178.0,175.0
3036,555.0,3.0,177.0,174.0
3037,551.0,3.0,174.0,172.0
3038,549.0,3.0,171.0,170.0
3039,553.0,3.0,173.0,170.0
3040,558.0,3.0,175.0,171.0
3041,560.0,3.0,177.0,172.0
3042,560.0,3.0,179.0,174.0
3043,559.0,3.0,180.0,175.0
3044,556.0,3.0,180.0,175.0
3045,553.0,3.0,178.0,175.0
3046,543.0,3.0,174.0,173.0
3047,537.0,3.0,172.0,171.0
3048,540.0,3.0,173.0,170.0
3049,545.0,2.0,175.0,171.0
3050,549.0,2.0,181.0,174.0
3051,553.0,3.0,186.0,178.0
3052,556.0,3.0,189.0,182.0
3053,555.0,3.0,193.0,185.0
3054,549.0,3.0,195.0,187.0
3055,550.0,3.0,192.0,187.0
3056,556.0,2.0,189.0,187.0
3057,559.0,2.0,190.0,187.0
3058,561.0,2.0,192.0,188.0
3059,560.0,2.0,194.0,189.0
3060,558.0,2.0,195.0,191.0
3061,556.0,2.0,195.0,191.0
3062,551.0,2.0,193.0,191.0
3063,540.0,2.0,189.0,188.0
3064,537.0,3.0,186.0,185.0
3065,541.0,2.0,183.0,183.0
3066,546.0,1.0,183.0,181.0
3067,550.0,2.0,185.0,181.0
3068,554.0,2.0,187.0,182.0
3069,556.0,1.0,186.0,182.0
3070,554.0,2.0,186.0,183.0
3071,548.0,1.0,183.0,181.0
3072,552.0,1.0,182.0,179.0
3073,556.0,1.0,182.0,179.0
3074,559.0,2.0,184.0,181.0
3075,561.0,2.0,187.0,182.0
3076,559.0,2.0,188.0,184.0
3077,558.0,2.0,189.0,185.0
3078,554.0,0.0,189.0,185.0
3079,547.0,0.0,186.0,184.0
3080,538.0,2.0,181.0,181.0
3081,536.0,2.0,179.0,178.0
3082,541.0,2.0,178.0,177.0
3083,545.0,1.0,179.0,177.0
3084,550.0,1.0,183.0,178.0
3085,554.0,1.0,187.0,181.0
3086,555.0,1.0,190.0,184.0
3087,549.0,2.0,192.0,186.0
3088,547.0,1.0,190.0,186.0
3089,552.0,1.0,187.0,185.0
3090,556.0,1.0,187.0,184.0
3091,558.0,1.0,188.0,185.0
3092,558.0,1.0,191.0,186.0
3093,557.0,1.0,193.0,188.0
3094,554.0,1.0,193.0,189.0
3095,550.0,2.0,191.0,188.0
3096,541.0,1.0,188.0,186.0
3097,534.0,1.0,185.0,184.0
3098,535.0,1.0,182.0,180.0
3099,539.0,0.0,180.0,178.0
3100,543.0,1.0,181.0,178.0
3101,548.0,1.0,182.0,178.0
3102,551.0,0.0,183.0,178.0
3103,552.0,1.0,182.0,179.0
3104,544.0,1.0,180.0,177.0
3105,547.0,1.0,177.0,175.0
3106,551.0,1.0,178.0,175.0
3107,555.0,1.0,180.0,176.0
3108,556.0,1.0,184.0,178.0
3109,555.0,0.0,186.0,180.0
3110,553.0,1.0,185.0,181.0
3111,550.0,0.0,185.0,182.0
3112,546.0,1.0,183.0,180.0
3113,535.0,1.0,179.0,178.0
3114,530.0,0.0,179.0,177.0
3115,534.0,0.0,180.0,177.0
3116,538.0,2.0,182.0,178.0
3117,542.0,1.0,186.0,180.0
3118,547.0,3.0,190.0,184.0
3119,549.0,7.0,193.0,187.0
3120,547.0,10.0,195.0,189.0
3121,541.0,22.0,193.0,189.0
3122,547.0,39.0,191.0,189.0
3123,551.0,58.0,192.0,190.0
3124,553.0,76.0,195.0,191.0
3125,553.0,90.0,201.0,195.0
3126,552.0,100.0,205.0,199.0
3127,549.0,107.0,206.0,201.0
3128,544.0,106.0,204.0,201.0
3129,534.0,115.0,203.0,200.0
3130,528.0,126.0,200.0,198.0
3131,531.0,135.0,199.0,197.0
3132,537.0,142.0,202.0,198.0
3133,541.0,147.0,207.0,202.0
3134,546.0,152.0,211.0,204.0
3135,547.0,155.0,213.0,208.0
3136,541.0,156.0,216.0,210.0
3137,542.0,157.0,214.0,210.0
3138,547.0,159.0,213.0,210.0
3139,550.0,157.0,211.0,209.0
3140,551.0,158.0,213.0,209.0
3141,552.0,161.0,217.0,212.0
3142,549.0,162.0,218.0,213.0
3143,545.0,159.0,216.0,214.0
3144,536.0,159.0,214.0,212.0
3145,527.0,161.0,210.0,209.0
3146,529.0,162.0,206.0,206.0
3147,534.0,162.0,203.0,203.0
3148,540.0,162.0,205.0,203.0
3149,545.0,162.0,208.0,204.0
3150,547.0,161.0,210.0,206.0
3151,545.0,158.0,210.0,207.0
3152,540.0,164.0,207.0,205.0
3153,545.0,180.0,203.0,204.0
3154,549.0,195.0,206.0,204.0
3155,552.0,212.0,207.0,205.0
3156,552.0,226.0,211.0,207.0
3157,551.0,235.0,214.0,209.0
3158,547.0,238.0,217.0,211.0
3159,541.0,234.0,214.0,212.0
3160,530.0,235.0,211.0,210.0
3161,529.0,245.0,207.0,207.0
3162,534.0,254.0,204.0,204.0
3163,539.0,261.0,203.0,203.0
3164,544.0,266.0,206.0,203.0
3165,548.0,270.0,208.0,204.0
3166,548.0,272.0,211.0,207.0
3167,540.0,268.0,212.0,208.0
3168,544.0,270.0,211.0,207.0
3169,550.0,280.0,207.0,206.0
3170,553.0,293.0,206.0,205.0
3171,554.0,307.0,207.0,205.0
3172,552.0,320.0,210.0,206.0
3173,550.0,329.0,210.0,207.0
3174,545.0,333.0,209.0,207.0
3175,535.0,329.0,206.0,205.0
3176,529.0,322.0,202.0,202.0
3177,534.0,319.0,197.0,198.0
3178,539.0,319.0,196.0,195.0
3179,544.0,325.0,196.0,194.0
3180,548.0,329.0,196.0,194.0
3181,549.0,328.0,196.0,194.0
3182,544.0,323.0,194.0,192.0
3183,544.0,329.0,190.0,190.0
3184,549.0,340.0,191.0,189.0
3185,552.0,348.0,194.0,191.0
3186,554.0,355.0,196.0,192.0
3187,554.0,359.0,199.0,193.0
3188,552.0,360.0,197.0,194.0
3189,548.0,361.0,195.0,194.0
3190,541.0,359.0,192.0,191.0
3191,532.0,352.0,188.0,188.0
3192,533.0,353.0,185.0,186.0
3193,538.0,365.0,186.0,185.0
3194,543.0,376.0,189.0,186.0
3195,547.0,387.0,193.0,188.0
3196,549.0,398.0,197.0,191.0
3197,549.0,407.0,199.0,194.0
3198,543.0,409.0,198.0,195.0
3199,547.0,402.0,194.0,193.0
3200,552.0,405.0,193.0,192.0
3201,554.0,415.0,196.0,193.0
3202,555.0,424.0,198.0,195.0
3203,554.0,430.0,199.0,195.0
3204,550.0,430.0,197.0,195.0
3205,545.0,424.0,195.0,193.0
3206,533.0,415.0,191.0,191.0
3207,531.0,413.0,187.0,187.0
3208,537.0,419.0,186.0,185.0
3209,542.0,431.0,187.0,185.0
3210,547.0,438.0,190.0,187.0
3211,550.0,444.0,193.0,189.0
3212,551.0,447.0,196.0,191.0
3213,543.0,443.0,194.0,191.0
3214,547.0,438.0,191.0,189.0
3215,551.0,443.0,189.0,188.0
3216,555.0,452.0,192.0,189.0
3217,556.0,462.0,196.0,191.0
3218,555.0,470.0,198.0,193.0
3219,552.0,472.0,198.0,194.0
3220,548.0,468.0,196.0,194.0
3221,537.0,458.0,192.0,191.0
3222,533.0,457.0,188.0,188.0
3223,537.0,463.0,185.0,186.0
3224,542.0,472.0,186.0,184.0
3225,547.0,479.0,186.0,185.0
3226,551.0,483.0,190.0,186.0
3227,552.0,485.0,191.0,187.0
3228,546.0,482.0,190.0,187.0
3229,547.0,474.0,187.0,186.0
3230,552.0,479.0,186.0,184.0
3231,555.0,488.0,187.0,185.0
3232,557.0,496.0,190.0,186.0
3233,557.0,503.0,191.0,187.0
3234,554.0,507.0,191.0,188.0
3235,551.0,505.0,191.0,188.0
3236,542.0,496.0,188.0,186.0
3237,534.0,488.0,184.0,183.0
3238,537.0,486.0,181.0,181.0
3239,542.0,493.0,180.0,179.0
3240,547.0,501.0,182.0,179.0
3241,551.0,507.0,184.0,180.0
3242,553.0,511.0,186.0,182.0
3243,552.0,511.0,187.0,183.0
3244,547.0,503.0,185.0,183.0
3245,552.0,507.0,181.0,181.0
3246,556.0,515.0,183.0,181.0
3247,559.0,522.0,184.0,182.0
3248,559.0,529.0,186.0,183.0
3249,557.0,532.0,187.0,184.0
3250,554.0,532.0,187.0,184.0
3251,549.0,531.0,184.0,182.0
3252,540.0,525.0,180.0,180.0
3253,539.0,513.0,178.0,178.0
3254,544.0,506.0,178.0,177.0
3255,549.0,505.0,182.0,178.0
3256,553.0,508.0,185.0,180.0
3257,556.0,508.0,187.0,182.0
3258,556.0,501.0,188.0,184.0
3259,550.0,498.0,187.0,184.0
3260,553.0,500.0,183.0,183.0
3261,558.0,502.0,183.0,183.0
3262,560.0,500.0,186.0,184.0
3263,561.0,497.0,189.0,186.0
3264,561.0,494.0,191.0,187.0
3265,559.0,489.0,191.0,187.0
3266,555.0,484.0,189.0,187.0
3267,545.0,477.0,185.0,185.0
3268,541.0,470.0,182.0,182.0
3269,545.0,461.0,180.0,179.0
3270,550.0,457.0,180.0,178.0
3271,555.0,457.0,182.0,179.0
3272,558.0,459.0,184.0,180.0
3273,558.0,457.0,186.0,182.0
3274,554.0,450.0,184.0,182.0
3275,554.0,449.0,182.0,180.0
3276,559.0,445.0,180.0,179.0
3277,562.0,442.0,182.0,180.0
3278,564.0,437.0,185.0,181.0
3279,563.0,431.0,187.0,183.0
3280,561.0,425.0,187.0,184.0
3281,558.0,419.0,187.0,184.0
3282,551.0,413.0,184.0,182.0
3283,543.0,405.0,180.0,179.0
3284,545.0,399.0,177.0,176.0
3285,550.0,402.0,176.0,174.0
3286,555.0,411.0,177.0,175.0
3287,559.0,422.0,180.0,176.0
3288,561.0,433.0,184.0,178.0
3289,559.0,440.0,186.0,180.0
3290,554.0,435.0,184.0,181.0
3291,558.0,435.0,181.0,180.0
3292,563.0,441.0,181.0,180.0
3293,566.0,445.0,184.0,180.0
3294,567.0,445.0,187.0,182.0
3295,565.0,445.0,188.0,183.0
3296,561.0,443.0,189.0,185.0
3297,557.0,440.0,186.0,184.0
3298,546.0,431.0,182.0,181.0
3299,548.0,429.0,180.0,179.0
3300,552.0,437.0,178.0,177.0
3301,557.0,446.0,179.0,177.0
3302,562.0,457.0,182.0,178.0
3303,563.0,466.0,184.0,180.0
3304,563.0,473.0,187.0,182.0
3305,557.0,474.0,185.0,182.0
3306,560.0,467.0,181.0,181.0
3307,564.0,470.0,182.0,180.0
3308,568.0,479.0,184.0,181.0
3309,569.0,487.0,187.0,183.0
3310,568.0,492.0,189.0,184.0
3311,565.0,494.0,189.0,185.0
3312,562.0,493.0,188.0,185.0
3313,552.0,484.0,184.0,183.0
3314,550.0,477.0,180.0,180.0
3315,555.0,478.0,179.0,178.0
3316,560.0,488.0,179.0,177.0
3317,563.0,496.0,180.0,178.0
3318,566.0,503.0,183.0,179.0
3319,566.0,507.0,186.0,181.0
3320,561.0,507.0,185.0,182.0
3321,561.0,499.0,182.0,181.0
3322,566.0,502.0,180.0,180.0
3323,570.0,510.0,182.0,180.0
3324,572.0,517.0,185.0,181.0
3325,572.0,523.0,187.0,183.0
3326,570.0,526.0,188.0,184.0
3327,567.0,526.0,188.0,183.0
3328,559.0,518.0,184.0,182.0
3329,552.0,507.0,180.0,180.0
3330,558.0,502.0,177.0,177.0
3331,561.0,506.0,178.0,176.0
3332,566.0,514.0,180.0,176.0
3333,569.0,522.0,182.0,178.0
3334,570.0,527.0,184.0,180.0
3335,569.0,528.0,184.0,180.0
3336,563.0,520.0,179.0,179.0
3337,568.0,522.0,178.0,177.0
3338,572.0,530.0,180.0,177.0
3339,575.0,537.0,183.0,179.0
3340,576.0,541.0,185.0,180.0
3341,575.0,543.0,186.0,182.0
3342,571.0,543.0,187.0,183.0
3343,566.0,540.0,184.0,181.0
3344,557.0,531.0,180.0,178.0
3345,560.0,520.0,177.0,176.0
3346,565.0,515.0,177.0,175.0
3347,570.0,518.0,179.0,176.0
3348,573.0,526.0,183.0,178.0
3349,574.0,534.0,186.0,181.0
3350,573.0,538.0,189.0,183.0
3351,567.0,533.0,188.0,184.0
3352,571.0,529.0,184.0,183.0
3353,575.0,535.0,183.0,183.0
3354,579.0,541.0,186.0,184.0
3355,580.0,543.0,190.0,186.0
3356,579.0,542.0,191.0,187.0
3357,576.0,541.0,192.0,188.0
3358,572.0,538.0,190.0,188.0
3359,564.0,532.0,186.0,186.0
3360,564.0,520.0,183.0,183.0
3361,568.0,512.0,181.0,181.0
3362,573.0,513.0,183.0,180.0
3363,576.0,521.0,186.0,182.0
3364,578.0,529.0,190.0,185.0
3365,577.0,536.0,192.0,187.0
3366,573.0,536.0,192.0,188.0
3367,573.0,527.0,190.0,187.0
3368,577.0,531.0,188.0,187.0
3369,581.0,537.0,190.0,188.0
3370,583.0,540.0,193.0,189.0
3371,583.0,539.0,196.0,191.0
3372,581.0,539.0,199.0,193.0
3373,577.0,535.0,200.0,196.0
3374,570.0,531.0,198.0,194.0
3375,568.0,523.0,193.0,193.0
3376,571.0,510.0,188.0,189.0
3377,576.0,505.0,187.0,187.0
3378,579.0,507.0,187.0,185.0
3379,582.0,513.0,189.0,185.0
3380,581.0,518.0,191.0,187.0
3381,579.0,517.0,190.0,187.0
3382,575.0,509.0,188.0,186.0
3383,579.0,512.0,185.0,184.0
3384,583.0,513.0,186.0,184.0
3385,586.0,512.0,188.0,185.0
3386,587.0,510.0,190.0,186.0
3387,586.0,508.0,192.0,188.0
3388,582.0,503.0,191.0,188.0
3389,577.0,498.0,188.0,187.0
3390,569.0,489.0,185.0,185.0
3391,573.0,479.0,181.0,181.0
3392,577.0,474.0,180.0,179.0
3393,582.0,479.0,181.0,179.0
3394,584.0,487.0,184.0,181.0
3395,584.0,496.0,187.0,182.0
3396,583.0,504.0,188.0,184.0
3397,576.0,513.0,187.0,185.0
3398,580.0,512.0,184.0,183.0
3399,583.0,504.0,184.0,182.0
3400,587.0,508.0,185.0,182.0
3401,588.0,515.0,188.0,184.0
3402,588.0,520.0,191.0,186.0
3403,585.0,523.0,191.0,187.0
3404,581.0,522.0,189.0,187.0
3405,572.0,520.0,186.0,185.0
3406,573.0,510.0,182.0,183.0
3407,577.0,500.0,180.0,179.0
3408,581.0,497.0,180.0,179.0
3409,584.0,498.0,182.0,179.0
3410,586.0,501.0,185.0,182.0
3411,585.0,502.0,188.0,184.0
3412,580.0,496.0,189.0,185.0
3413,579.0,492.0,187.0,184.0
3414,583.0,496.0,184.0,183.0
3415,587.0,497.0,185.0,183.0
3416,589.0,497.0,189.0,185.0
3417,590.0,496.0,191.0,187.0
3418,587.0,493.0,193.0,189.0
3419,583.0,488.0,192.0,189.0
3420,575.0,483.0,190.0,188.0
3421,569.0,474.0,186.0,186.0
3422,573.0,465.0,183.0,183.0
3423,577.0,465.0,183.0,181.0
3424,582.0,475.0,184.0,182.0
3425,584.0,483.0,187.0,182.0
3426,584.0,492.0,190.0,185.0
3427,582.0,500.0,192.0,187.0
3428,577.0,506.0,189.0,186.0
3429,581.0,503.0,186.0,185.0
3430,585.0,495.0,186.0,185.0
3431,588.0,500.0,189.0,186.0
3432,588.0,504.0,191.0,187.0
3433,587.0,506.0,193.0,189.0
3434,583.0,503.0,193.0,190.0
3435,579.0,495.0,191.0,189.0
3436,568.0,484.0,187.0,186.0
3437,568.0,475.0,184.0,184.0
3438,573.0,472.0,183.0,182.0
3439,577.0,477.0,184.0,182.0
3440,580.0,485.0,188.0,184.0
3441,581.0,491.0,193.0,187.0
3442,581.0,493.0,196.0,190.0
3443,574.0,486.0,197.0,192.0
3444,577.0,486.0,194.0,192.0
3445,581.0,495.0,192.0,191.0
3446,585.0,503.0,193.0,191.0
3447,586.0,509.0,197.0,193.0
3448,584.0,512.0,198.0,195.0
3449,581.0,514.0,199.0,196.0
3450,577.0,513.0,199.0,195.0
3451,568.0,509.0,195.0,194.0
3452,562.0,500.0,191.0,191.0
3453,566.0,489.0,188.0,188.0
3454,570.0,483.0,188.0,187.0
3455,574.0,484.0,190.0,188.0
3456,577.0,491.0,193.0,188.0
3457,578.0,499.0,194.0,190.0
3458,573.0,505.0,195.0,190.0
3459,572.0,505.0,190.0,189.0
3460,576.0,495.0,188.0,188.0
3461,580.0,491.0,192.0,189.0
3462,581.0,489.0,194.0,191.0
3463,581.0,484.0,197.0,192.0
3464,578.0,473.0,198.0,194.0
3465,574.0,470.0,198.0,194.0
3466,569.0,477.0,194.0,192.0
3467,558.0,482.0,190.0,189.0
3468,558.0,486.0,187.0,187.0
3469,563.0,487.0,187.0,185.0
3470,567.0,486.0,190.0,186.0
3471,570.0,485.0,193.0,188.0
3472,573.0,481.0,196.0,191.0
3473,572.0,477.0,199.0,193.0
3474,565.0,471.0,199.0,194.0
3475,569.0,465.0,194.0,193.0
3476,574.0,459.0,194.0,192.0
3477,576.0,451.0,196.0,193.0
3478,576.0,443.0,199.0,194.0
3479,575.0,436.0,201.0,196.0
3480,571.0,428.0,202.0,197.0
3481,567.0,420.0,200.0,196.0
3482,556.0,411.0,195.0,194.0
3483,551.0,403.0,191.0,191.0
3484,555.0,395.0,189.0,189.0
3485,560.0,388.0,190.0,188.0
3486,564.0,378.0,193.0,189.0
3487,567.0,370.0,197.0,191.0
3488,568.0,362.0,198.0,193.0
3489,561.0,355.0,198.0,194.0
3490,563.0,346.0,194.0,193.0
3491,567.0,341.0,193.0,192.0
3492,571.0,341.0,196.0,193.0
3493,571.0,342.0,198.0,194.0
3494,570.0,342.0,201.0,196.0
3495,567.0,340.0,204.0,199.0
3496,564.0,336.0,202.0,199.0
3497,555.0,328.0,197.0,197.0
3498,546.0,323.0,194.0,194.0
3499,547.0,320.0,191.0,191.0
3500,552.0,317.0,191.0,189.0
3501,557.0,313.0,192.0,190.0
3502,560.0,309.0,195.0,191.0
3503,563.0,305.0,198.0,194.0
3504,560.0,301.0,199.0,196.0
3505,555.0,304.0,196.0,195.0
3506,559.0,314.0,195.0,194.0
3507,563.0,325.0,197.0,194.0
3508,566.0,337.0,200.0,197.0
3509,565.0,346.0,204.0,199.0
3510,563.0,353.0,207.0,201.0
3511,559.0,356.0,206.0,202.0
3512,553.0,355.0,204.0,202.0
3513,542.0,352.0,201.0,200.0
3514,538.0,344.0,196.0,196.0
3515,542.0,338.0,195.0,194.0
3516,547.0,337.0,195.0,194.0
3517,552.0,343.0,198.0,195.0
3518,556.0,352.0,202.0,197.0
3519,556.0,358.0,204.0,200.0
3520,547.0,361.0,205.0,201.0
3521,549.0,362.0,202.0,200.0
3522,555.0,360.0,200.0,199.0
3523,558.0,353.0,201.0,199.0
3524,558.0,346.0,203.0,200.0
3525,557.0,339.0,206.0,202.0
3526,556.0,333.0,207.0,203.0
3527,550.0,329.0,204.0,202.0
3528,539.0,329.0,201.0,200.0
3529,531.0,328.0,197.0,196.0
3530,531.0,326.0,195.0,194.0
3531,536.0,323.0,195.0,193.0
3532,541.0,320.0,198.0,194.0
3533,547.0,316.0,201.0,196.0
3534,549.0,312.0,204.0,198.0
3535,545.0,307.0,204.0,200.0
3536,540.0,303.0,201.0,198.0
3537,545.0,297.0,197.0,198.0
3538,549.0,291.0,199.0,197.0
3539,551.0,287.0,200.0,198.0
3540,551.0,281.0,202.0,199.0
3541,549.0,274.0,200.0,199.0
3542,545.0,270.0,199.0,197.0
3543,536.0,263.0,194.0,195.0
3544,526.0,258.0,192.0,192.0
3545,523.0,253.0,189.0,190.0
3546,528.0,248.0,191.0,189.0
3547,532.0,242.0,193.0,190.0
3548,539.0,236.0,196.0,191.0
3549,541.0,231.0,197.0,193.0
3550,542.0,225.0,196.0,193.0
3551,532.0,220.0,191.0,191.0
3552,536.0,215.0,191.0,190.0
3553,541.0,210.0,193.0,191.0
3554,544.0,204.0,198.0,194.0
3555,544.0,200.0,201.0,196.0
3556,544.0,195.0,203.0,198.0
3557,541.0,191.0,202.0,199.0
3558,535.0,185.0,200.0,197.0
3559,524.0,181.0,196.0,194.0
3560,518.0,177.0,193.0,193.0
3561,521.0,172.0,191.0,190.0
3562,526.0,169.0,193.0,190.0
3563,532.0,165.0,196.0,192.0
3564,536.0,160.0,199.0,194.0
3565,538.0,157.0,202.0,196.0
3566,530.0,153.0,200.0,197.0
3567,532.0,150.0,197.0,195.0
3568,536.0,145.0,195.0,195.0
3569,541.0,142.0,198.0,195.0
3570,542.0,139.0,202.0,198.0
3571,541.0,135.0,203.0,199.0
3572,539.0,132.0,203.0,199.0
3573,536.0,129.0,201.0,199.0
3574,526.0,126.0,197.0,197.0
3575,519.0,122.0,193.0,194.0
3576,521.0,119.0,192.0,192.0
3577,527.0,116.0,193.0,191.0
3578,532.0,114.0,197.0,193.0
3579,536.0,111.0,200.0,195.0
3580,538.0,109.0,201.0,197.0
3581,535.0,106.0,201.0,197.0
3582,531.0,107.0,197.0,196.0
3583,536.0,113.0,197.0,195.0
3584,541.0,122.0,198.0,196.0
3585,543.0,132.0,203.0,198.0
3586,543.0,141.0,204.0,200.0
3587,542.0,146.0,206.0,202.0
3588,539.0,150.0,205.0,202.0
3589,531.0,151.0,202.0,200.0
3590,524.0,149.0,198.0,198.0
3591,526.0,146.0,196.0,195.0
3592,532.0,144.0,194.0,193.0
3593,536.0,144.0,196.0,193.0
3594,541.0,143.0,199.0,195.0
3595,543.0,141.0,201.0,196.0
3596,542.0,147.0,202.0,198.0
3597,536.0,159.0,201.0,198.0
3598,541.0,176.0,197.0,197.0
3599,545.0,192.0,197.0,197.0
3600,549.0,208.0,200.0,197.0
3601,550.0,220.0,203.0,198.0
3602,549.0,230.0,204.0,200.0
3603,546.0,237.0,204.0,200.0
3604,542.0,237.0,201.0,200.0
3605,531.0,234.0,197.0,197.0
3606,530.0,233.0,193.0,194.0
3607,536.0,239.0,191.0,192.0
3608,540.0,249.0,192.0,191.0
3609,545.0,265.0,195.0,192.0
3610,548.0,277.0,197.0,193.0
3611,548.0,288.0,198.0,194.0
3612,542.0,294.0,196.0,193.0
3613,547.0,291.0,192.0,192.0
3614,551.0,289.0,193.0,192.0
3615,554.0,295.0,197.0,194.0
3616,556.0,303.0,200.0,196.0
3617,555.0,310.0,203.0,198.0
3618,551.0,313.0,204.0,200.0
3619,547.0,313.0,202.0,199.0
3620,539.0,309.0,198.0,197.0
3621,531.0,303.0,194.0,195.0
3622,533.0,296.0,193.0,193.0
3623,539.0,293.0,195.0,193.0
3624,543.0,295.0,199.0,195.0
3625,548.0,298.0,203.0,197.0
3626,550.0,299.0,205.0,200.0
3627,544.0,296.0,206.0,202.0
3628,547.0,294.0,202.0,201.0
3629,551.0,297.0,200.0,199.0
3630,555.0,304.0,202.0,199.0
3631,555.0,311.0,205.0,201.0
3632,555.0,315.0,207.0,203.0
3633,551.0,317.0,209.0,204.0
3634,547.0,316.0,208.0,205.0
3635,541.0,311.0,206.0,203.0
3636,530.0,304.0,200.0,200.0
3637,530.0,299.0,197.0,197.0
3638,536.0,298.0,196.0,195.0
3639,541.0,303.0,197.0,194.0
3640,546.0,312.0,199.0,196.0
3641,549.0,320.0,202.0,198.0
3642,548.0,324.0,202.0,198.0
3643,543.0,322.0,200.0,197.0
3644,548.0,318.0,197.0,196.0
3645,552.0,321.0,198.0,196.0
3646,554.0,328.0,201.0,198.0
3647,554.0,333.0,205.0,200.0
3648,552.0,337.0,206.0,201.0
3649,549.0,338.0,206.0,202.0
3650,543.0,334.0,204.0,201.0
3651,533.0,326.0,200.0,198.0
3652,531.0,320.0,195.0,196.0
3653,537.0,317.0,195.0,194.0
3654,542.0,318.0,197.0,195.0
3655,546.0,324.0,202.0,196.0
3656,550.0,330.0,204.0,199.0
3657,551.0,334.0,207.0,202.0
3658,544.0,333.0,207.0,202.0
3659,545.0,327.0,202.0,201.0
3660,550.0,329.0,201.0,200.0
3661,554.0,335.0,204.0,201.0
3662,556.0,340.0,208.0,203.0
3663,555.0,342.0,210.0,205.0
3664,553.0,342.0,210.0,206.0
3665,549.0,338.0,209.0,206.0
3666,540.0,332.0,207.0,205.0
3667,535.0,325.0,201.0,202.0
3668,539.0,321.0,200.0,199.0
3669,545.0,322.0,198.0,197.0
3670,549.0,326.0,199.0,197.0
3671,552.0,334.0,202.0,197.0
3672,553.0,341.0,202.0,198.0
3673,551.0,344.0,201.0,198.0
3674,545.0,339.0,197.0,196.0
3675,550.0,337.0,196.0,195.0
3676,555.0,341.0,198.0,196.0
3677,558.0,348.0,201.0,197.0
3678,558.0,353.0,203.0,198.0
3679,557.0,354.0,204.0,200.0
3680,554.0,352.0,203.0,200.0
3681,547.0,347.0,199.0,198.0
3682,540.0,340.0,196.0,195.0
3683,543.0,332.0,191.0,192.0
3684,548.0,329.0,190.0,190.0
3685,553.0,331.0,192.0,190.0
3686,556.0,336.0,194.0,191.0
3687,557.0,340.0,197.0,192.0
3688,557.0,343.0,198.0,194.0
3689,548.0,338.0,196.0,193.0
3690,552.0,335.0,192.0,192.0
3691,556.0,339.0,193.0,192.0
3692,560.0,344.0,195.0,192.0
3693,562.0,349.0,197.0,194.0
3694,561.0,351.0,199.0,195.0
3695,560.0,351.0,199.0,196.0
3696,555.0,347.0,196.0,194.0
3697,546.0,341.0,192.0,191.0
3698,549.0,333.0,189.0,189.0
3699,553.0,329.0,190.0,188.0
3700,558.0,327.0,193.0,189.0
3701,561.0,329.0,197.0,192.0
3702,562.0,331.0,201.0,195.0
3703,561.0,332.0,203.0,198.0
3704,556.0,328.0,204.0,199.0
3705,555.0,325.0,200.0,198.0
3706,559.0,328.0,200.0,198.0
3707,563.0,333.0,202.0,199.0
3708,566.0,337.0,206.0,201.0
3709,567.0,339.0,209.0,204.0
3710,566.0,339.0,210.0,206.0
3711,563.0,336.0,210.0,207.0
3712,554.0,329.0,208.0,205.0
3713,553.0,322.0,202.0,203.0
3714,559.0,316.0,199.0,199.0
3715,563.0,314.0,199.0,198.0
3716,567.0,315.0,201.0,198.0
3717,568.0,317.0,203.0,199.0
3718,566.0,317.0,205.0,200.0
3719,563.0,312.0,205.0,201.0
3720,557.0,313.0,202.0,200.0
3721,561.0,316.0,199.0,198.0
3722,566.0,318.0,201.0,198.0
3723,570.0,319.0,203.0,200.0
3724,571.0,318.0,205.0,201.0
3725,571.0,317.0,207.0,203.0
3726,568.0,314.0,206.0,203.0
3727,561.0,312.0,203.0,201.0
3728,557.0,307.0,198.0,198.0
3729,561.0,304.0,196.0,196.0
3730,566.0,299.0,196.0,194.0
3731,570.0,295.0,199.0,195.0
3732,571.0,290.0,204.0,198.0
3733,571.0,285.0,207.0,201.0
3734,568.0,279.0,209.0,204.0
3735,562.0,275.0,208.0,204.0
3736,566.0,269.0,204.0,203.0
3737,571.0,264.0,205.0,202.0
3738,575.0,259.0,208.0,205.0
3739,575.0,252.0,212.0,207.0
3740,575.0,247.0,214.0,209.0
3741,572.0,242.0,214.0,211.0
3742,568.0,237.0,214.0,210.0
3743,558.0,231.0,209.0,208.0
3744,557.0,226.0,204.0,204.0
3745,562.0,221.0,202.0,202.0
3746,567.0,215.0,203.0,201.0
3747,569.0,210.0,205.0,202.0
3748,571.0,206.0,208.0,204.0
3749,571.0,201.0,209.0,204.0
3750,564.0,196.0,207.0,205.0
3751,566.0,192.0,204.0,202.0
3752,570.0,187.0,203.0,201.0
3753,574.0,182.0,205.0,202.0
3754,575.0,178.0,207.0,203.0
3755,576.0,175.0,208.0,205.0
3756,573.0,170.0,210.0,206.0
3757,569.0,166.0,207.0,205.0
3758,560.0,161.0,202.0,202.0
3759,554.0,158.0,199.0,199.0
3760,559.0,154.0,197.0,197.0
3761,564.0,150.0,199.0,196.0
3762,568.0,146.0,203.0,199.0
3763,571.0,143.0,207.0,202.0
3764,571.0,139.0,210.0,205.0
3765,568.0,136.0,212.0,207.0
3766,565.0,133.0,208.0,206.0
3767,569.0,129.0,205.0,205.0
3768,573.0,126.0,208.0,205.0
3769,576.0,123.0,211.0,207.0
3770,575.0,120.0,214.0,209.0
3771,573.0,117.0,217.0,212.0
3772,570.0,114.0,218.0,213.0
3773,564.0,112.0,215.0,212.0
3774,554.0,110.0,211.0,210.0
3775,555.0,106.0,207.0,207.0
3776,560.0,109.0,205.0,205.0
3777,564.0,114.0,207.0,204.0
3778,568.0,116.0,209.0,205.0
3779,570.0,115.0,212.0,207.0
3780,569.0,115.0,213.0,208.0
3781,562.0,115.0,212.0,209.0
3782,567.0,113.0,208.0,207.0
3783,571.0,113.0,208.0,206.0
3784,573.0,112.0,210.0,207.0
3785,574.0,109.0,212.0,208.0
3786,572.0,108.0,212.0,208.0
3787,569.0,106.0,212.0,208.0
3788,565.0,105.0,209.0,207.0
3789,555.0,103.0,205.0,203.0
3790,552.0,102.0,201.0,201.0
3791,556.0,100.0,200.0,199.0
3792,560.0,104.0,202.0,199.0
3793,565.0,113.0,205.0,200.0
3794,568.0,125.0,208.0,203.0
3795,568.0,137.0,210.0,205.0
3796,561.0,145.0,210.0,206.0
3797,564.0,150.0,206.0,205.0
3798,568.0,149.0,204.0,204.0
3799,571.0,147.0,206.0,204.0
3800,572.0,148.0,210.0,206.0
3801,571.0,149.0,213.0,208.0
3802,569.0,147.0,214.0,209.0
3803,565.0,145.0,212.0,209.0
3804,557.0,148.0,209.0,207.0
3805,549.0,156.0,203.0,204.0
3806,551.0,171.0,200.0,201.0
3807,556.0,187.0,200.0,199.0
3808,560.0,204.0,203.0,199.0
3809,565.0,218.0,205.0,202.0
3810,566.0,229.0,208.0,203.0
3811,563.0,238.0,209.0,205.0
3812,559.0,245.0,207.0,205.0
3813,564.0,250.0,204.0,203.0
3814,568.0,252.0,204.0,203.0
3815,569.0,254.0,208.0,204.0
3816,569.0,256.0,210.0,206.0
3817,568.0,255.0,212.0,208.0
3818,564.0,254.0,211.0,208.0
3819,558.0,253.0,209.0,207.0
3820,548.0,250.0,206.0,204.0
3821,545.0,247.0,202.0,201.0
3822,550.0,243.0,201.0,200.0
3823,555.0,241.0,203.0,200.0
3824,559.0,237.0,206.0,202.0
3825,563.0,234.0,209.0,204.0
3826,562.0,230.0,211.0,206.0
3827,556.0,225.0,209.0,206.0
3828,560.0,221.0,206.0,204.0
3829,565.0,217.0,205.0,204.0
3830,567.0,212.0,207.0,204.0
3831,567.0,208.0,210.0,205.0
3832,565.0,204.0,210.0,207.0
3833,561.0,217.0,211.0,208.0
3834,557.0,233.0,209.0,207.0
3835,547.0,247.0,206.0,204.0
3836,540.0,262.0,201.0,201.0
3837,543.0,277.0,198.0,198.0
3838,548.0,290.0,198.0,196.0
3839,553.0,300.0,199.0,197.0
3840,557.0,309.0,202.0,198.0
3841,559.0,321.0,204.0,199.0
3842,552.0,331.0,202.0,200.0
3843,554.0,337.0,200.0,197.0
3844,558.0,343.0,198.0,197.0
3845,562.0,345.0,201.0,198.0
3846,562.0,347.0,204.0,200.0
3847,560.0,347.0,207.0,203.0
3848,558.0,346.0,210.0,204.0
3849,553.0,352.0,209.0,205.0
3850,547.0,359.0,207.0,204.0
3851,536.0,360.0,202.0,202.0
3852,532.0,358.0,199.0,199.0
3853,537.0,356.0,199.0,198.0
3854,543.0,352.0,202.0,199.0
3855,547.0,354.0,206.0,201.0
3856,551.0,360.0,208.0,203.0
3857,548.0,362.0,210.0,206.0
3858,546.0,364.0,210.0,206.0
3859,550.0,364.0,206.0,205.0
3860,554.0,363.0,205.0,204.0
3861,554.0,360.0,208.0,205.0
3862,553.0,358.0,210.0,207.0
3863,550.0,354.0,211.0,208.0
3864,546.0,355.0,211.0,207.0
3865,540.0,354.0,209.0,206.0
3866,530.0,353.0,206.0,204.0
3867,523.0,353.0,201.0,200.0
3868,527.0,352.0,198.0,198.0
3869,532.0,349.0,199.0,197.0
3870,537.0,351.0,201.0,197.0
3871,542.0,351.0,202.0,198.0
3872,544.0,349.0,203.0,199.0
3873,537.0,347.0,200.0,198.0
3874,540.0,343.0,197.0,197.0
3875,545.0,340.0,198.0,197.0
3876,546.0,336.0,202.0,198.0
3877,546.0,332.0,205.0,201.0
3878,544.0,326.0,208.0,203.0
3879,540.0,326.0,209.0,204.0
3880,535.0,335.0,208.0,205.0
3881,527.0,343.0,204.0,203.0
3882,518.0,344.0,199.0,199.0
3883,518.0,344.0,198.0,197.0
3884,524.0,343.0,198.0,196.0
3885,529.0,341.0,202.0,198.0
3886,534.0,343.0,207.0,201.0
3887,537.0,345.0,210.0,204.0
3888,532.0,347.0,212.0,206.0
3889,530.0,346.0,210.0,207.0
3890,536.0,345.0,206.0,205.0
3891,539.0,344.0,206.0,205.0
3892,539.0,340.0,209.0,205.0
3893,539.0,337.0,212.0,207.0
3894,535.0,331.0,213.0,209.0
3895,531.0,334.0,213.0,209.0
3896,526.0,334.0,211.0,208.0
3897,515.0,334.0,205.0,205.0
3898,506.0,334.0,203.0,203.0
3899,507.0,332.0,203.0,202.0
3900,513.0,333.0,205.0,202.0
3901,518.0,331.0,208.0,204.0
3902,522.0,330.0,210.0,206.0
3903,520.0,327.0,211.0,208.0
3904,515.0,324.0,209.0,207.0
3905,519.0,320.0,207.0,206.0
3906,521.0,317.0,209.0,206.0
3907,522.0,312.0,213.0,209.0
3908,519.0,306.0,218.0,212.0
3909,516.0,301.0,220.0,214.0
3910,512.0,304.0,220.0,216.0
3911,507.0,305.0,219.0,215.0
3912,500.0,306.0,214.0,214.0
3913,488.0,308.0,210.0,210.0
3914,481.0,305.0,209.0,208.0
3915,480.0,305.0,209.0,207.0
3916,484.0,304.0,212.0,208.0
3917,487.0,302.0,215.0,210.0
3918,484.0,299.0,216.0,211.0
3919,477.0,296.0,214.0,211.0
3920,479.0,293.0,209.0,209.0
3921,478.0,288.0,208.0,207.0
3922,476.0,284.0,211.0,208.0
3923,472.0,279.0,213.0,209.0
3924,468.0,274.0,215.0,211.0
3925,463.0,272.0,215.0,212.0
3926,457.0,276.0,214.0,212.0
3927,450.0,286.0,211.0,210.0
3928,441.0,289.0,206.0,206.0
3929,432.0,290.0,203.0,203.0
3930,427.0,291.0,203.0,202.0
3931,426.0,289.0,205.0,202.0
3932,425.0,291.0,207.0,203.0
3933,422.0,291.0,209.0,205.0
3934,414.0,291.0,209.0,206.0
3935,412.0,290.0,205.0,204.0
3936,408.0,287.0,204.0,203.0
3937,404.0,285.0,207.0,203.0
3938,400.0,282.0,210.0,206.0
3939,394.0,278.0,214.0,208.0
3940,389.0,274.0,215.0,210.0
3941,383.0,276.0,214.0,211.0
3942,377.0,283.0,211.0,210.0
3943,369.0,284.0,207.0,206.0
3944,361.0,285.0,203.0,203.0
3945,355.0,284.0,203.0,201.0
3946,351.0,282.0,205.0,202.0
3947,349.0,283.0,209.0,205.0
3948,345.0,283.0,214.0,207.0
3949,337.0,281.0,214.0,210.0
3950,334.0,280.0,212.0,210.0
3951,330.0,277.0,207.0,207.0
3952,326.0,274.0,205.0,206.0
3953,320.0,271.0,205.0,205.0
3954,316.0,267.0,204.0,204.0
3955,310.0,262.0,203.0,203.0
3956,304.0,263.0,199.0,199.0
3957,299.0,266.0,194.0,196.0
3958,292.0,267.0,192.0,192.0
3959,287.0,269.0,193.0,191.0
3960,280.0,269.0,195.0,192.0
3961,276.0,268.0,198.0,193.0
3962,273.0,268.0,200.0,195.0
3963,269.0,266.0,201.0,197.0
3964,263.0,264.0,201.0,198.0
3965,259.0,260.0,200.0,197.0
3966,255.0,257.0,197.0,196.0
3967,250.0,254.0,201.0,198.0
3968,247.0,250.0,207.0,202.0
3969,243.0,247.0,214.0,206.0
3970,237.0,242.0,218.0,211.0
3971,233.0,239.0,222.0,215.0
3972,228.0,242.0,224.0,217.0
3973,224.0,246.0,223.0,219.0
3974,218.0,244.0,220.0,218.0
3975,213.0,246.0,215.0,215.0
3976,208.0,244.0,213.0,212.0
3977,204.0,243.0,213.0,211.0
3978,200.0,243.0,215.0,212.0
3979,195.0,242.0,217.0,213.0
3980,191.0,241.0,217.0,215.0
3981,187.0,238.0,216.0,215.0
3982,183.0,236.0,212.0,212.0
3983,179.0,233.0,210.0,210.0
3984,174.0,230.0,209.0,209.0
3985,171.0,226.0,208.0,207.0
3986,167.0,223.0,206.0,205.0
3987,163.0,229.0,202.0,202.0
3988,159.0,234.0,198.0,199.0
3989,156.0,236.0,195.0,196.0
3990,152.0,238.0,196.0,194.0
3991,148.0,240.0,199.0,195.0
3992,144.0,242.0,202.0,197.0
3993,141.0,244.0,205.0,200.0
3994,137.0,245.0,206.0,202.0
3995,136.0,245.0,206.0,202.0
3996,131.0,245.0,201.0,201.0
3997,128.0,245.0,201.0,200.0
3998,125.0,242.0,205.0,202.0
3999,121.0,240.0,211.0,206.0
4000,119.0,237.0,217.0,210.0
4001,117.0,234.0,222.0,214.0
4002,115.0,235.0,225.0,218.0
4003,114.0,244.0,225.0,219.0
4004,113.0,246.0,223.0,219.0
4005,112.0,249.0,218.0,217.0
4006,109.0,248.0,215.0,214.0
4007,108.0,250.0,215.0,213.0
4008,105.0,250.0,218.0,214.0
4009,103.0,250.0,223.0,217.0
4010,102.0,248.0,227.0,220.0
4011,100.0,246.0,229.0,223.0
4012,98.0,245.0,228.0,224.0
4013,97.0,241.0,225.0,223.0
4014,97.0,239.0,222.0,221.0
4015,97.0,236.0,221.0,220.0
4016,99.0,233.0,223.0,220.0
4017,102.0,229.0,222.0,220.0
4018,105.0,238.0,221.0,219.0
4019,107.0,240.0,218.0,217.0
4020,110.0,244.0,213.0,213.0
4021,111.0,245.0,210.0,210.0
4022,110.0,247.0,209.0,208.0
4023,107.0,248.0,208.0,207.0
4024,107.0,251.0,210.0,207.0
4025,107.0,252.0,211.0,207.0
4026,105.0,252.0,209.0,207.0
4027,104.0,251.0,205.0,206.0
4028,102.0,251.0,206.0,205.0
4029,101.0,249.0,211.0,207.0
4030,101.0,246.0,216.0,211.0
4031,101.0,244.0,222.0,215.0
4032,102.0,240.0,224.0,218.0
4033,103.0,245.0,225.0,220.0
4034,104.0,252.0,224.0,220.0
4035,105.0,254.0,219.0,218.0
4036,102.0,256.0,215.0,215.0
4037,100.0,256.0,215.0,213.0
4038,101.0,258.0,218.0,214.0
4039,103.0,258.0,224.0,218.0
4040,103.0,261.0,228.0,222.0
4041,103.0,262.0,231.0,225.0
4042,101.0,264.0,234.0,228.0
4043,100.0,262.0,232.0,229.0
4044,98.0,262.0,227.0,227.0
4045,98.0,259.0,225.0,226.0
4046,98.0,257.0,227.0,225.0
4047,101.0,255.0,228.0,226.0
4048,101.0,253.0,229.0,226.0
4049,103.0,265.0,227.0,224.0
4050,103.0,271.0,225.0,222.0
4051,103.0,270.0,219.0,219.0
4052,102.0,272.0,216.0,216.0
4053,101.0,272.0,215.0,214.0
4054,101.0,273.0,217.0,214.0
4055,104.0,272.0,219.0,215.0
4056,103.0,277.0,221.0,217.0
4057,103.0,279.0,222.0,218.0
4058,101.0,280.0,217.0,216.0
4059,100.0,280.0,216.0,214.0
4060,98.0,279.0,218.0,215.0
4061,96.0,278.0,222.0,218.0
4062,95.0,276.0,226.0,221.0
4063,94.0,274.0,229.0,224.0
4064,93.0,275.0,229.0,225.0
4065,93.0,282.0,228.0,225.0
4066,90.0,288.0,226.0,223.0
4067,90.0,288.0,219.0,220.0
4068,89.0,288.0,217.0,217.0
4069,90.0,289.0,217.0,215.0
4070,91.0,288.0,218.0,216.0
4071,92.0,287.0,222.0,218.0
4072,92.0,290.0,225.0,220.0
4073,93.0,293.0,228.0,222.0
4074,91.0,295.0,226.0,223.0
4075,89.0,294.0,222.0,221.0
4076,88.0,293.0,221.0,220.0
4077,87.0,292.0,223.0,221.0
4078,89.0,290.0,226.0,222.0
4079,90.0,287.0,228.0,224.0
4080,92.0,288.0,229.0,225.0
4081,93.0,292.0,227.0,224.0
4082,94.0,301.0,224.0,222.0
4083,94.0,302.0,218.0,218.0
4084,93.0,302.0,215.0,215.0
4085,91.0,299.0,214.0,213.0
4086,92.0,299.0,216.0,213.0
4087,92.0,300.0,219.0,214.0
4088,92.0,301.0,221.0,216.0
4089,92.0,302.0,222.0,218.0
4090,90.0,301.0,219.0,218.0
4091,90.0,299.0,216.0,216.0
4092,87.0,297.0,216.0,215.0
4093,87.0,294.0,219.0,216.0
4094,88.0,291.0,222.0,218.0
4095,89.0,287.0,223.0,219.0
4096,90.0,286.0,224.0,220.0
4097,91.0,287.0,222.0,220.0
4098,92.0,289.0,218.0,217.0
4099,92.0,289.0,214.0,213.0
4100,92.0,291.0,213.0,211.0
4101,90.0,291.0,215.0,211.0
4102,90.0,292.0,219.0,214.0
4103,91.0,291.0,222.0,216.0
4104,90.0,293.0,225.0,219.0
4105,89.0,294.0,227.0,221.0
4106,89.0,294.0,226.0,222.0
4107,87.0,294.0,221.0,220.0
4108,85.0,292.0,220.0,219.0
4109,84.0,290.0,223.0,219.0
4110,84.0,287.0,226.0,222.0
4111,85.0,284.0,229.0,224.0
4112,85.0,282.0,230.0,225.0
4113,85.0,295.0,230.0,226.0
4114,86.0,303.0,228.0,225.0
4115,85.0,305.0,224.0,222.0
4116,85.0,306.0,220.0,219.0
4117,82.0,305.0,217.0,216.0
4118,83.0,305.0,217.0,215.0
4119,82.0,303.0,218.0,215.0
4120,81.0,308.0,220.0,216.0
4121,80.0,312.0,219.0,217.0
4122,80.0,314.0,219.0,216.0
4123,78.0,314.0,214.0,214.0
4124,77.0,314.0,213.0,213.0
4125,78.0,312.0,215.0,213.0
4126,79.0,310.0,219.0,215.0
4127,81.0,308.0,221.0,216.0
4128,84.0,304.0,222.0,218.0
4129,87.0,311.0,222.0,218.0
4130,94.0,314.0,219.0,217.0
4131,99.0,317.0,215.0,214.0
4132,106.0,316.0,211.0,211.0
4133,110.0,317.0,210.0,210.0
4134,115.0,316.0,212.0,209.0
4135,119.0,315.0,217.0,212.0
4136,120.0,319.0,221.0,215.0
4137,120.0,321.0,224.0,219.0
4138,117.0,322.0,225.0,221.0
4139,115.0,322.0,221.0,220.0
4140,114.0,320.0,219.0,219.0
4141,112.0,318.0,221.0,219.0
4142,110.0,316.0,226.0,222.0
4143,109.0,312.0,228.0,224.0
4144,106.0,310.0,229.0,225.0
4145,104.0,310.0,229.0,225.0
4146,103.0,313.0,226.0,224.0
4147,102.0,313.0,221.0,221.0
4148,102.0,314.0,218.0,218.0
4149,102.0,315.0,219.0,216.0
4150,102.0,314.0,221.0,217.0
4151,103.0,316.0,225.0,220.0
4152,103.0,318.0,228.0,223.0
4153,105.0,318.0,230.0,225.0
4154,109.0,318.0,226.0,224.0
4155,115.0,316.0,223.0,222.0
4156,124.0,314.0,224.0,223.0
4157,129.0,312.0,229.0,224.0
4158,134.0,308.0,231.0,226.0
4159,133.0,304.0,234.0,229.0
4160,134.0,313.0,235.0,230.0
4161,140.0,318.0,232.0,229.0
4162,149.0,321.0,229.0,227.0
4163,160.0,320.0,223.0,223.0
4164,170.0,320.0,220.0,220.0
4165,180.0,319.0,220.0,219.0
4166,186.0,320.0,221.0,219.0
4167,191.0,324.0,223.0,220.0
4168,196.0,327.0,224.0,221.0
4169,200.0,327.0,222.0,220.0
4170,204.0,327.0,219.0,218.0
4171,207.0,325.0,219.0,218.0
4172,208.0,322.0,221.0,218.0
4173,209.0,320.0,224.0,220.0
4174,209.0,316.0,224.0,221.0
4175,207.0,317.0,223.0,221.0
4176,203.0,322.0,221.0,219.0
4177,200.0,322.0,215.0,215.0
4178,198.0,322.0,214.0,214.0
4179,195.0,323.0,217.0,213.0
4180,194.0,323.0,222.0,216.0
4181,195.0,320.0,226.0,219.0
4182,195.0,323.0,228.0,223.0
4183,196.0,325.0,230.0,225.0
4184,195.0,327.0,230.0,226.0
4185,193.0,326.0,226.0,225.0
4186,192.0,325.0,224.0,224.0
4187,190.0,323.0,227.0,225.0
4188,188.0,320.0,231.0,227.0
4189,185.0,317.0,234.0,230.0
4190,182.0,318.0,236.0,231.0
