0.020937199
0.014356935
0.023928227
0.037686955
0.061615184
0.08315059
0.056829542
0.053240303
0.054436717
0.059222363
0.040079776
0.04486543
0.03469593
0.04546363
0.03708875
0.056829542
0.056231335
0.0741775
0.02871387
0.025124637
0.049651075
0.0741775
0.059222363
0.026919257
0.03708875
0.02751746
0.014356935
0.050249275
0.056231335
0.023928227
0.020937199
0.058624156
0.05503492
0.041874398
0.039481577
0.055633124
0.049052864
-0.00059820566
0.07716853
0.06460622
0.06460622
0.07956135
0.04426722
0.052043896
0.015553347
0.08853444
0.041874398
0.006580262
0.05144569
0.052043896
0.038285162
0.04546363
0.041874398
0.03708875
0.05503492
0.046660043
0.018544376
0.0735793
0.037686955
0.07716853
0.0017946169
0.0317049
0.01674976
0.016151555
-0.020937199
-0.005383851
0.037686955
-0.012562319
0.0071784677
0.040677987
0.06460622
0.06879365
0.046061836
0.071186475
0.022731815
0.06759725
0.03349952
0.042472597
0.059820563
0.0628116
0.04127619
0.024526432
0.04127619
0.02871387
0.025722845
0.0317049
0.03290131
0.03349952
0.015553347
0.03290131
0.046660043
0.021535404
-0.01794617
0.049651075
0.01375873
0.04725825
0.071186475
0.050249275
0.019142581
0.089132644
0.04486543
0.058025952
0.064008005
0.014955141
0.00837488
0.050249275
0.050847482
0.0741775
-0.0011964113
0.01674976
0.043070808
0.028115667
0.0628116
0.03529413
0.103489585
0.050249275
0.022731815
-0.005383851
0.062213387
0.011365907
0.049651075
0.019142581
0.04127619
0.058025952
0.061615184
0.021535404
0.05503492
0.0741775
0.09272188
0.028115667
0.019142581
0.020338994
0.039481577
0.04725825
0.0017946169
0.016151555
0.03050849
0.00837488
0.014356935
0.071186475
0.01794617
0.023928227
0.04426722
0.0317049
0.055633124
0.03469593
0.046061836
0.028115667
0.0741775
0.012562319
0.025124637
0.061615184
0.056231335
0.02213361
0.03349952
0.03409772
0.048454657
0.016151555
0.023928227
0.03708875
0.03290131
0.050847482
0.008973085
0.011964113
-0.0077766734
0.04486543
0.029910281
0.03529413
0.08733803
0.075972125
0.019740788
0.08255238
0.017347965
-0.017347965
0.031106694
0.040079776
0.058025952
0.028115667
0.010767702
0.016151555
0.0017946169
0.06699904
0.01375873
0.020338994
0.043669015
0.019740788
0.026321048
0.048454657
0.025722845
0.012562319
0.06999007
0.058025952
0.015553347
0.046660043
-0.0047856453
0.00059820566
0.05144569
0.010169497
0.040677987
0.03050849
0.022731815
0.050847482
0.026321048
0.05742774
0.019740788
0.0017946169
0.03708875
0.058624156
0.0
0.03409772
0.0628116
0.046660043
0.061615184
-0.010767702
0.038285162
0.031106694
0.017347965
0.029910281
0.03469593
0.03708875
0.05144569
0.056829542
0.047856454
0.017347965
0.043070808
0.047856454
0.029312078
0.043070808
0.023928227
0.036490545
0.02213361
0.0017946169
0.03349952
0.0017946169
0.028115667
0.038285162
0.04725825
-0.006580262
0.056829542
0.07298109
0.050847482
0.023330022
0.0628116
0.022731815
0.00837488
0.084945194
0.023928227
0.05503492
0.062213387
0.052642096
0.029910281
0.054436717
0.005383851
-0.0011964113
0.049052864
0.04127619
0.01375873
0.014356935
0.041874398
0.058624156
0.012562319
0.049052864
0.064008005
0.0029910284
0.015553347
0.046660043
0.043070808
0.0317049
0.03409772
0.023928227
0.01375873
0.083748795
-0.009571291
0.018544376
0.03589234
0.03529413
0.0317049
0.02213361
0.019142581
0.019740788
-0.0023928226
0.03888337
0.024526432
0.062213387
0.053838514
0.043070808
0.058624156
0.1058824
0.049052864
0.03708875
0.03290131
0.046061836
0.02871387
0.017347965
0.0011964113
0.020338994
0.041874398
0.08554341
0.03888337
0.059820563
0.041874398
0.029312078
0.039481577
0.046061836
0.055633124
0.06101698
0.021535404
0.013160524
0.03230311
0.053838514
0.050847482
0.0029910284
0.012562319
0.02213361
0.01375873
0.047856454
0.056231335
0.021535404
0.019142581
0.02751746
-0.029910281
0.06759725
0.00418744
0.043669015
0.071186475
0.050847482
0.056829542
0.0035892338
0.0317049
0.07776674
0.04725825
0.025124637
0.056231335
0.010169497
0.046660043
-0.0029910284
0.011964113
0.04546363
0.03888337
0.03888337
0.053240303
0.03050849
0.03708875
0.06999007
0.062213387
0.0628116
0.0317049
0.06460622
-0.02213361
0.08733803
0.08853444
0.025722845
0.010169497
0.0735793
0.031106694
0.009571291
0.04127619
0.07776674
0.09092726
0.026919257
0.037686955
0.052642096
0.006580262
0.055633124
0.061615184
0.060418773
0.0059820567
0.0735793
0.022731815
0.05144569
0.010169497
0.0317049
0.03589234
0.03589234
0.03708875
0.050249275
0.05742774
0.064008005
0.043070808
0.017347965
0.014356935
0.025124637
0.019142581
0.03050849
0.050249275
0.03589234
0.050249275
0.04486543
0.04725825
0.039481577
0.026919257
0.03589234
0.06999007
0.043669015
0.06879365
0.01375873
0.03469593
0.050249275
0.058624156
0.037686955
0.028115667
0.10468599
0.053838514
0.06460622
0.0029910284
-0.011964113
0.04486543
0.050249275
0.012562319
0.0634098
-0.00418744
0.006580262
0.053838514
0.03349952
0.03230311
0.00418744
0.03469593
0.0077766734
0.005383851
0.016151555
-0.008973085
0.0029910284
0.00059820566
0.03409772
0.042472597
0.0071784677
-0.005383851
0.041874398
0.0059820567
0.01375873
0.02213361
0.040677987
0.0023928226
0.009571291
0.06580262
0.049052864
0.07058826
0.021535404
0.03409772
0.019740788
0.049651075
0.058624156
0.012562319
0.00837488
0.010169497
0.023330022
0.0047856453
0.026919257
-0.009571291
0.038285162
0.050847482
0.043669015
0.014955141
0.059820563
0.06520442
0.03409772
0.025124637
0.053838514
0.03409772
0.016151555
0.031106694
0.019142581
0.058025952
0.052642096
0.023928227
0.0317049
0.08255238
0.026919257
0.022731815
0.052642096
0.050249275
0.014955141
0.023330022
0.009571291
0.040079776
0.06699904
0.0317049
0.047856454
0.03529413
0.03589234
0.05503492
0.03529413
0.02213361
0.011365907
0.048454657
0.052043896
0.03589234
0.023330022
0.03589234
0.03050849
0.0035892338
0.058624156
0.058624156
0.052642096
0.006580262
-0.0017946169
0.01794617
0.050847482
0.048454657
0.018544376
0.01375873
0.0029910284
0.053240303
0.07776674
0.06520442
0.020338994
0.02751746
0.084347
0.07896315
0.08195418
0.048454657
0.03290131
0.06819544
0.024526432
0.066400826
0.040079776
0.02751746
0.0077766734
0.050249275
0.040079776
0.08255238
0.046061836
0.059820563
0.020937199
0.028115667
0.0011964113
0.053838514
0.008973085
0.010169497
0.056829542
0.048454657
0.016151555
0.0071784677
0.04127619
0.041874398
0.048454657
0.03290131
0.025124637
0.021535404
0.04486543
0.047856454
0.06101698
0.026321048
0.03888337
0.026321048
0.005383851
0.062213387
0.010767702
0.058025952
0.059222363
0.04127619
0.053240303
0.046061836
0.025124637
0.05503492
-0.012562319
0.03529413
0.009571291
0.012562319
0.04546363
0.056829542
0.052043896
0.043669015
0.03708875
0.04546363
0.042472597
0.046061836
0.029312078
0.0077766734
-0.0059820567
0.018544376
0.025722845
0.06101698
0.08255238
0.03529413
0.03290131
0.019142581
0.046660043
-0.0017946169
0.03888337
0.022731815
0.036490545
0.023330022
0.075972125
0.04486543
0.04486543
0.0047856453
0.04725825
0.00837488
0.020937199
0.03230311
-0.0059820567
0.039481577
0.025722845
0.043070808
0.03529413
0.005383851
-0.011964113
0.04725825
0.0
0.012562319
0.08015955
0.049651075
0.016151555
0.05742774
0.08195418
0.021535404
0.066400826
0.029312078
0.05503492
0.06580262
0.019740788
0.049052864
0.01674976
0.06759725
0.043070808
0.025722845
0.029910281
0.058025952
0.03349952
0.0023928226
-0.031106694
-0.0059820567
0.03409772
0.020338994
0.01674976
0.042472597
0.03708875
0.0077766734
0.008973085
0.012562319
0.048454657
0.019142581
0.010767702
0.038285162
0.046061836
0.039481577
0.04127619
0.04725825
0.01794617
0.07716853
0.017347965
0.01674976
0.07477571
0.040677987
0.047856454
0.049052864
0.0047856453
0.020338994
0.0741775
0.0317049
0.03708875
0.038285162
0.052043896
0.043070808
0.07058826
0.037686955
0.03708875
0.019142581
0.0077766734
0.048454657
0.023330022
0.07776674
0.049052864
0.008973085
-0.0035892338
0.021535404
0.07776674
0.010169497
0.023330022
0.05742774
0.028115667
0.043669015
0.03409772
0.04426722
0.020338994
0.036490545
-0.010169497
0.016151555
0.025124637
0.04546363
0.028115667
0.029910281
0.0017946169
0.05742774
0.056829542
0.03050849
0.024526432
0.04725825
0.03708875
0.052642096
0.03888337
0.02213361
0.010767702
0.01375873
0.014356935
0.03469593
0.040079776
0.028115667
0.049651075
0.0317049
0.058025952
0.04546363
-0.0011964113
0.026321048
0.058624156
0.026321048
0.018544376
0.048454657
0.053838514
0.03529413
0.015553347
0.06819544
0.041874398
0.031106694
0.049651075
0.02871387
0.050847482
0.018544376
0.04426722
0.020338994
-0.00059820566
0.09930215
0.03409772
0.024526432
0.0
0.03409772
0.066400826
0.040677987
0.07298109
0.05503492
0.021535404
0.023330022
0.048454657
0.07477571
0.0077766734
0.025124637
0.0741775
0.02871387
0.06520442
0.050847482
0.043070808
0.03469593
0.03529413
0.010767702
0.03349952
0.029312078
0.01794617
0.037686955
0.048454657
0.023330022
0.03888337
0.056829542
0.042472597
-0.0071784677
0.08075776
0.029312078
0.07537391
0.03469593
0.09332009
0.058025952
0.010767702
0.029910281
0.07716853
0.01794617
0.0317049
0.026321048
0.062213387
0.03589234
0.049052864
0.040677987
0.03230311
-0.019740788
0.031106694
0.046061836
0.05503492
0.04546363
0.07896315
0.042472597
0.06999007
0.008973085
-0.026919257
0.02751746
0.029910281
0.03888337
-0.0047856453
0.024526432
0.024526432
0.0634098
0.038285162
0.043669015
0.01375873
0.0011964113
-0.010767702
0.0047856453
0.03050849
0.05742774
0.036490545
0.03230311
0.02871387
0.020338994
0.056231335
0.01674976
0.03230311
0.02751746
0.049052864
-0.013160524
0.040079776
0.02751746
0.058025952
0.010169497
0.011964113
0.031106694
0.00837488
0.029910281
0.04426722
0.03529413
0.07238289
0.04725825
0.0077766734
0.06999007
0.050847482
0.02871387
0.03230311
0.022731815
0.050249275
0.050249275
0.037686955
0.046061836
0.05144569
0.060418773
0.03529413
0.03708875
0.037686955
0.043070808
0.026919257
0.0317049
0.013160524
0.03589234
0.06580262
0.055633124
0.04426722
0.036490545
0.03349952
0.05742774
-0.0011964113
0.019142581
0.06101698
-0.025124637
0.046061836
0.021535404
-0.005383851
0.061615184
0.019740788
0.04486543
0.026321048
0.09990034
0.091525465
0.008973085
0.023330022
0.026919257
0.03708875
0.048454657
0.040677987
0.031106694
0.013160524
-0.011365907
0.02213361
0.010169497
-0.0011964113
-0.0029910284
0.031106694
0.023928227
0.06460622
0.023330022
0.016151555
-0.0071784677
0.050249275
0.019740788
0.03290131
0.03409772
0.043070808
0.012562319
0.041874398
0.03469593
0.02751746
0.009571291
0.029312078
0.020338994
-0.017347965
0.020338994
0.043070808
0.078364946
0.041874398
0.061615184
0.042472597
0.005383851
0.024526432
0.03469593
0.026321048
-0.0029910284
0.058025952
0.053240303
0.08195418
0.0
0.048454657
0.009571291
0.014356935
0.029910281
0.03409772
0.046061836
0.05503492
0.01794617
-0.011964113
0.014955141
0.06939186
0.041874398
0.040079776
0.014356935
0.02213361
0.02213361
0.0
-0.006580262
0.040079776
0.048454657
0.037686955
0.025124637
0.084347
0.026919257
0.0059820567
0.052642096
0.025124637
0.046061836
0.049052864
0.081355974
0.058025952
0.016151555
-0.0035892338
-0.0047856453
0.024526432
0.050249275
-0.022731815
-0.009571291
0.0317049
0.06819544
0.03409772
0.025722845
0.07716853
0.054436717
0.04127619
0.05503492
0.03290131
0.014955141
0.011365907
0.04426722
0.06879365
0.062213387
0.0071784677
0.00059820566
0.06699904
0.029910281
0.01794617
0.006580262
0.05503492
0.04127619
0.03469593
0.036490545
0.014356935
0.025124637
0.0077766734
0.016151555
0.011964113
0.024526432
0.03708875
0.026919257
0.0634098
0.03888337
0.052642096
0.008973085
0.04546363
0.046660043
0.052642096
0.025124637
0.03469593
-0.03589234
0.03888337
0.053240303
0.0317049
0.016151555
0.075972125
0.0317049
0.05144569
0.018544376
0.025124637
0.043070808
0.043669015
0.00837488
0.029910281
0.050249275
0.06101698
0.039481577
0.02751746
0.006580262
0.03708875
0.012562319
0.026919257
0.059820563
0.049052864
0.048454657
0.04426722
0.05144569
0.023928227
0.02871387
0.041874398
0.060418773
0.053838514
0.062213387
0.00418744
0.047856454
0.038285162
0.048454657
0.012562319
0.048454657
0.021535404
0.00837488
0.03589234
0.062213387
0.0029910284
0.0035892338
0.029910281
0.04546363
0.09750752
0.040079776
-0.0011964113
0.040079776
0.01794617
0.040677987
0.02871387
0.07477571
0.07537391
0.084945194
0.053838514
0.08075776
0.09571291
0.026919257
0.050847482
0.041874398
0.041874398
0.015553347
0.056829542
0.058624156
0.052043896
0.020937199
0.036490545
0.046061836
0.056231335
0.113659084
0.053240303
0.049651075
0.047856454
0.0628116
0.016151555
0.08075776
0.061615184
0.04426722
0.0017946169
0.03409772
0.05503492
0.0029910284
0.052043896
0.03529413
0.056231335
-0.006580262
0.019142581
0.02751746
0.021535404
0.053838514
0.017347965
0.04127619
0.0077766734
0.023928227
-0.010169497
0.023928227
0.0071784677
0.022731815
0.075972125
-0.00418744
0.016151555
-0.0059820567
0.04486543
0.06879365
0.03589234
0.047856454
0.043669015
0.024526432
0.040677987
0.049052864
0.06879365
0.062213387
0.05144569
0.04426722
0.029910281
0.07058826
0.06580262
0.071186475
0.0735793
0.066400826
0.013160524
-0.0071784677
0.01674976
0.037686955
0.055633124
0.03888337
0.03290131
0.06999007
0.06819544
0.042472597
0.0317049
0.04725825
0.05742774
0.026321048
0.024526432
0.019740788
0.043070808
0.040079776
0.049651075
0.037686955
0.028115667
0.049651075
0.07178468
0.02213361
0.021535404
0.0059820567
0.03409772
0.023928227
0.046061836
0.010767702
0.040677987
0.014356935
0.08793623
0.029910281
0.03290131
0.00418744
0.014955141
0.03888337
0.04725825
0.049651075
0.053240303
0.029312078
0.046061836
0.03529413
0.010767702
0.02213361
0.053240303
0.006580262
0.071186475
0.060418773
0.050249275
0.071186475
0.03469593
0.0035892338
0.059222363
0.03290131
0.056231335
0.058624156
0.00418744
0.028115667
0.010169497
0.019142581
0.02871387
0.02871387
0.029312078
0.071186475
0.08973086
0.041874398
0.04426722
0.021535404
-0.0077766734
-0.010767702
-0.024526432
0.047856454
0.050249275
0.02213361
0.0071784677
0.018544376
0.07477571
0.011964113
0.08015955
0.052043896
0.00837488
0.013160524
0.0634098
0.03290131
0.031106694
0.042472597
0.05503492
-0.0047856453
0.03589234
0.029910281
0.0011964113
0.03349952
0.014356935
0.018544376
0.041874398
0.011964113
0.039481577
0.042472597
0.03589234
0.050847482
0.02213361
0.03349952
0.0945165
0.03469593
0.04725825
0.011964113
0.046660043
0.048454657
0.052043896
0.048454657
0.022731815
0.014356935
0.058025952
0.03469593
0.03349952
0.0035892338
0.052642096
0.019142581
0.010767702
0.005383851
0.03888337
0.058624156
0.03888337
0.1058824
0.014955141
0.040677987
-0.020937199
0.06879365
0.055633124
-0.01375873
0.01674976
0.03409772
0.058624156
0.0628116
0.028115667
0.029312078
0.009571291
0.03469593
0.026321048
0.0077766734
0.02871387
0.02871387
0.026321048
0.03409772
0.03409772
0.06699904
0.03469593
0.047856454
0.050249275
0.020338994
0.060418773
0.06699904
0.050847482
0.009571291
0.04426722
0.005383851
0.031106694
-0.006580262
0.050847482
0.041874398
-0.028115667
0.04546363
0.021535404
0.058025952
0.081355974
0.09571291
0.041874398
0.026919257
0.066400826
0.04546363
0.03589234
-0.00837488
0.018544376
0.052043896
0.02213361
0.0634098
0.016151555
0.03529413
0.053240303
0.04725825
0.037686955
0.038285162
0.04725825
0.023330022
0.04546363
0.050249275
0.043070808
0.025124637
0.03529413
0.059820563
0.04426722
0.03290131
0.04127619
0.01375873
0.060418773
0.00837488
0.040079776
0.038285162
0.04486543
0.013160524
0.029910281
0.025722845
0.06520442
0.046061836
0.08075776
0.03050849
-0.008973085
0.006580262
0.021535404
0.054436717
0.089132644
0.038285162
0.022731815
0.03589234
0.041874398
0.040079776
0.047856454
0.053838514
0.005383851
0.023928227
0.02213361
0.043669015
0.00837488
0.03230311
0.05742774
0.019740788
0.08015955
0.0077766734
0.042472597
0.03708875
0.031106694
0.06699904
0.015553347
0.05144569
0.028115667
0.022731815
0.00418744
0.06580262
0.03230311
0.048454657
0.014356935
0.03230311
0.016151555
0.021535404
0.05742774
0.041874398
0.011964113
0.042472597
0.040677987
0.022731815
0.04546363
0.043669015
0.03589234
0.01794617
0.028115667
0.02751746
0.01794617
0.06879365
0.048454657
0.014356935
0.0735793
0.053838514
0.06101698
0.038285162
0.014356935
0.056829542
0.055633124
0.03349952
0.020338994
0.052642096
0.026919257
0.025124637
0.014356935
0.06580262
0.052043896
0.06879365
0.0011964113
0.050847482
0.05503492
0.055633124
0.03469593
-0.00418744
0.059820563
0.02751746
0.06879365
0.050249275
0.07956135
0.058624156
0.041874398
0.06759725
0.036490545
0.03469593
0.029312078
0.00837488
-0.01794617
0.03708875
0.07776674
0.040677987
0.064008005
0.016151555
0.03409772
0.052043896
0.019740788
0.059222363
0.039481577
0.017347965
0.03409772
0.029312078
0.04426722
0.04546363
0.07776674
0.08673982
0.020338994
0.043070808
0.03409772
0.029910281
0.023330022
0.04546363
0.024526432
0.06939186
0.07716853
0.011964113
0.03230311
0.041874398
0.037686955
0.036490545
0.04546363
0.036490545
0.058025952
0.03529413
0.07298109
0.06101698
0.047856454
0.054436717
0.05503492
-0.0047856453
0.01674976
0.03409772
0.084945194
0.050847482
0.0317049
0.03589234
0.042472597
0.0059820567
0.054436717
0.023330022
0.011365907
0.011964113
0.048454657
0.0317049
0.061615184
0.0628116
0.056829542
0.046061836
0.036490545
0.04127619
0.00059820566
0.03589234
0.019142581
0.08315059
0.011365907
0.026321048
0.066400826
0.054436717
0.03888337
0.0317049
0.062213387
0.042472597
0.056231335
0.058025952
0.029312078
-0.0035892338
0.050847482
0.039481577
0.071186475
0.096909314
0.026321048
0.029312078
0.022731815
0.031106694
0.023330022
0.02871387
0.020338994
-0.0071784677
0.0071784677
0.06460622
0.058624156
0.049052864
0.046660043
0.062213387
0.055633124
-0.024526432
0.05742774
0.07776674
0.02871387
0.037686955
0.058624156
0.06520442
0.03349952
0.023330022
0.026919257
0.03589234
0.020338994
0.0071784677
0.064008005
0.012562319
0.06460622
0.017347965
0.017347965
0.008973085
0.03529413
0.060418773
0.028115667
0.06520442
0.03888337
0.02751746
0.06819544
0.09272188
0.054436717
0.071186475
0.0029910284
-0.016151555
-0.023330022
0.03050849
0.06999007
0.05144569
0.0023928226
0.01794617
0.023330022
0.009571291
0.009571291
0.042472597
0.071186475
0.012562319
-0.006580262
0.00837488
-0.021535404
0.05144569
0.041874398
0.050847482
0.006580262
0.056231335
0.03409772
0.0628116
0.03469593
0.024526432
0.011964113
0.03290131
0.058624156
0.025722845
0.060418773
0.020338994
0.06939186
0.056829542
0.017347965
0.038285162
0.049052864
0.05742774
0.049052864
0.006580262
0.010767702
0.03589234
0.056829542
0.03290131
0.015553347
0.04426722
0.023928227
0.048454657
0.04127619
0.062213387
0.060418773
0.089132644
0.028115667
0.016151555
0.006580262
0.017347965
0.025722845
0.025124637
-0.010169497
0.008973085
0.011365907
0.038285162
0.052043896
0.06580262
0.061615184
0.041874398
0.005383851
0.036490545
0.0077766734
0.043669015
0.009571291
0.062213387
0.041874398
0.056829542
0.050249275
0.041874398
0.058025952
0.064008005
0.07238289
0.062213387
0.05503492
0.03708875
0.029312078
0.018544376
0.02871387
0.025722845
0.07298109
0.047856454
0.017347965
0.028115667
0.042472597
0.026919257
0.037686955
0.029910281
0.05144569
0.04486543
0.025722845
-0.012562319
0.015553347
0.052043896
0.021535404
0.03050849
0.031106694
0.058624156
0.03589234
0.05144569
0.042472597
0.024526432
0.01375873
0.0735793
0.01674976
0.029312078
0.022731815
0.03888337
0.046660043
-0.005383851
0.023928227
0.066400826
0.07298109
0.0317049
0.0035892338
0.040677987
0.040079776
0.03050849
-0.0077766734
0.011964113
0.029910281
0.037686955
0.066400826
0.02751746
0.013160524
0.016151555
0.01674976
0.036490545
0.020937199
0.048454657
0.025722845
0.0023928226
0.04725825
0.014955141
-0.026919257
-0.0011964113
0.03290131
0.03050849
0.01674976
0.011365907
0.043070808
0.07477571
0.066400826
0.056231335
0.05503492
0.036490545
-0.013160524
0.055633124
-0.04546363
0.005383851
0.03589234
0.050249275
0.03589234
0.03349952
0.006580262
0.046660043
0.03589234
0.03290131
0.0059820567
0.054436717
0.053240303
0.029910281
0.03469593
0.020937199
-0.0077766734
0.07178468
0.07238289
0.012562319
0.04127619
0.037686955
0.07238289
0.031106694
0.06520442
0.04426722
0.025124637
0.018544376
0.043070808
0.038285162
0.031106694
0.06101698
0.064008005
0.02871387
0.05144569
0.07238289
0.0945165
0.043669015
-0.0017946169
0.043070808
0.008973085
0.02213361
0.046660043
0.066400826
0.043669015
0.023928227
0.029312078
0.03050849
0.00418744
0.03050849
0.047856454
0.02213361
0.019142581
0.055633124
0.06460622
0.06759725
0.058025952
0.043669015
0.09571291
0.011964113
0.08853444
0.07238289
0.039481577
0.03050849
0.023928227
0.020338994
0.03888337
0.03888337
0.06580262
0.04127619
0.020338994
0.036490545
0.029910281
0.07238289
0.006580262
0.03230311
0.07776674
0.06699904
0.0011964113
0.06520442
0.06759725
0.015553347
0.0628116
0.011365907
0.04486543
0.02871387
0.021535404
0.05742774
0.020937199
0.029910281
0.046660043
0.023330022
0.013160524
0.0029910284
0.043070808
0.047856454
0.023330022
0.018544376
0.0628116
0.025722845
0.040677987
0.04546363
0.060418773
0.02751746
0.06699904
0.054436717
0.005383851
0.005383851
0.07178468
0.036490545
0.07896315
0.01674976
0.04486543
0.06939186
0.015553347
0.059222363
0.050249275
0.037686955
0.03349952
0.037686955
0.0735793
0.036490545
0.09212367
0.050249275
0.07776674
0.03230311
0.026321048
0.054436717
0.03589234
0.01794617
0.043070808
0.04127619
0.0741775
0.01375873
-0.0047856453
0.03230311
0.028115667
0.04486543
0.00837488
0.03469593
0.020937199
0.08853444
0.08733803
0.040677987
0.03349952
0.025124637
0.03708875
0.06101698
-0.01794617
0.017347965
0.02871387
0.047856454
0.02871387
0.015553347
0.01375873
0.048454657
0.014955141
0.03230311
0.03230311
0.03349952
0.037686955
0.03050849
0.08075776
0.00059820566
0.050847482
0.041874398
0.055633124
0.06580262
0.043070808
0.048454657
0.041874398
0.040677987
0.04546363
0.019740788
0.08853444
0.086141616
0.047856454
0.024526432
0.029312078
0.02751746
0.00418744
0.0741775
0.03469593
0.02751746
0.0023928226
-0.01375873
0.014955141
0.020937199
0.026321048
0.06520442
0.11066805
0.010169497
0.048454657
0.02751746
0.03529413
0.04426722
0.062213387
0.012562319
0.036490545
0.04546363
0.039481577
0.042472597
0.020338994
0.114257276
0.052642096
0.0945165
0.04486543
0.009571291
0.06580262
0.054436717
-0.00418744
0.038285162
0.053838514
0.0059820567
0.03589234
0.071186475
0.019142581
0.038285162
0.03469593
0.029312078
0.059222363
0.05503492
0.019142581
0.028115667
0.049651075
0.058624156
0.040677987
-0.0029910284
0.066400826
0.047856454
0.078364946
0.055633124
0.03290131
0.0023928226
0.015553347
0.028115667
0.018544376
0.06520442
0.014356935
0.031106694
0.016151555
0.053838514
0.059222363
0.049651075
0.029910281
0.042472597
0.04486543
0.021535404
0.023330022
-0.005383851
0.06520442
0.06879365
0.028115667
0.03888337
0.025124637
0.03349952
0.03589234
-0.013160524
0.012562319
0.014356935
0.078364946
0.026321048
0.056829542
0.03529413
0.043669015
0.026919257
0.014356935
0.055633124
0.037686955
0.020937199
0.03708875
0.03529413
0.0077766734
0.025124637
0.043070808
0.04127619
0.06999007
0.0035892338
0.06699904
0.040079776
-0.0029910284
0.053240303
0.014955141
0.062213387
0.062213387
0.10109676
0.022731815
0.046660043
0.059820563
0.06939186
0.040677987
0.010767702
0.046660043
0.08075776
0.02751746
0.043070808
0.016151555
0.07776674
0.043070808
0.037686955
0.029910281
0.011365907
0.054436717
0.039481577
0.02751746
0.0951147
0.029910281
0.0077766734
0.03708875
0.026321048
0.020937199
0.01794617
0.021535404
-0.0011964113
0.0035892338
-0.021535404
0.05742774
0.03050849
0.03529413
0.043070808
0.038285162
0.056829542
0.04426722
0.029312078
0.053838514
0.039481577
0.029312078
0.05503492
0.046660043
0.03469593
0.05503492
0.07896315
0.026919257
0.037686955
0.050249275
0.010169497
0.008973085
0.013160524
0.053838514
0.023928227
0.025722845
0.02751746
0.049651075
0.028115667
0.0071784677
0.055633124
0.014356935
0.0317049
0.005383851
0.06879365
0.062213387
0.012562319
-0.011964113
0.046660043
0.056829542
0.050249275
0.02871387
0.046660043
-0.01674976
0.050847482
0.0628116
0.026321048
0.040079776
0.0035892338
0.043070808
0.03050849
0.037686955
-0.00837488
0.03230311
0.017347965
0.062213387
0.041874398
0.039481577
0.025124637
0.078364946
0.055633124
0.041874398
0.048454657
-0.041874398
0.02751746
0.052043896
0.0735793
0.03589234
0.043669015
0.058025952
0.009571291
0.022731815
-0.0059820567
0.04486543
-0.0059820567
0.022731815
0.03469593
0.021535404
0.026919257
0.036490545
-0.010767702
0.020937199
0.048454657
0.053240303
0.037686955
0.006580262
0.055633124
0.04486543
0.009571291
0.010169497
0.0
0.0011964113
0.083748795
0.029910281
0.08195418
0.048454657
0.049651075
0.020937199
0.013160524
0.03050849
0.052642096
0.059222363
0.046061836
0.0741775
0.056829542
0.025722845
0.03230311
0.029910281
0.02871387
0.040677987
0.020338994
0.076570325
0.018544376
0.06999007
0.029910281
0.043669015
0.020338994
0.03050849
0.07716853
0.04426722
-0.0011964113
0.0077766734
0.0047856453
0.010169497
0.014356935
0.008973085
0.04426722
0.020338994
0.038285162
0.0059820567
0.025722845
0.026321048
0.050249275
0.03529413
0.03469593
0.046660043
0.04426722
0.01674976
0.053838514
0.0317049
0.03469593
0.016151555
0.017347965
0.043669015
0.04426722
-0.00837488
0.036490545
0.025124637
0.020937199
0.060418773
-0.0047856453
0.036490545
0.040079776
0.056231335
0.023928227
0.048454657
0.06101698
0.026919257
0.022731815
0.050847482
0.0634098
0.06520442
0.041874398
0.03349952
0.038285162
0.023330022
0.04127619
0.054436717
0.052043896
0.019740788
0.060418773
0.050847482
0.06520442
0.03469593
0.047856454
0.01674976
0.026919257
0.029312078
0.054436717
0.05503492
0.01375873
0.049651075
0.038285162
0.028115667
0.091525465
0.07537391
0.03349952
0.018544376
0.07956135
0.029910281
0.053240303
0.0317049
0.047856454
0.025124637
0.06101698
0.03050849
0.01375873
0.052043896
0.03708875
0.039481577
0.056231335
0.013160524
0.060418773
0.04426722
0.056829542
0.04426722
0.049052864
0.006580262
0.03708875
0.036490545
0.056829542
0.011365907
0.039481577
0.029910281
-0.01375873
0.03708875
0.08673982
0.04725825
-0.0071784677
0.01375873
0.026321048
0.081355974
0.010169497
0.026321048
0.005383851
0.03888337
0.052642096
0.08793623
0.03050849
0.05742774
0.03589234
0.040677987
0.0029910284
0.07537391
0.052642096
0.037686955
0.03708875
0.009571291
0.005383851
0.025124637
-0.012562319
0.0077766734
0.0047856453
0.05144569
0.03589234
0.03230311
0.021535404
0.028115667
0.028115667
0.02871387
0.022731815
0.0
0.062213387
0.07178468
0.008973085
0.06759725
0.049052864
0.052043896
0.058624156
0.03589234
0.03290131
0.03589234
0.054436717
-0.028115667
0.050249275
0.043070808
0.052642096
0.043669015
0.03589234
0.04486543
0.0735793
0.013160524
0.048454657
0.021535404
0.0317049
-0.018544376
0.052642096
0.048454657
0.052642096
0.056829542
0.06939186
0.03888337
0.031106694
0.076570325
0.049052864
0.0735793
0.0077766734
0.03349952
0.029910281
0.058025952
0.06999007
0.059222363
0.061615184
0.029312078
0.015553347
0.019740788
0.06101698
0.06939186
0.04127619
0.0317049
0.043669015
0.039481577
0.023928227
0.0741775
-0.009571291
0.014955141
0.04486543
0.039481577
0.043669015
0.03349952
0.0317049
0.066400826
0.06101698
0.04725825
0.041874398
0.084945194
0.052642096
0.010169497
-0.011365907
0.023928227
0.02751746
0.0634098
0.061615184
0.038285162
0.03589234
0.06460622
0.02213361
0.066400826
0.0011964113
0.03050849
0.02871387
0.03708875
0.06699904
0.016151555
0.019740788
0.010169497
0.024526432
0.019142581
0.014356935
0.014356935
0.01674976
0.09332009
0.03589234
0.017347965
0.040079776
0.059820563
0.049651075
0.021535404
0.02871387
0.06699904
-0.014356935
0.006580262
0.018544376
0.09332009
0.066400826
0.06520442
0.025124637
0.03708875
0.02751746
0.02751746
0.009571291
0.059222363
0.023330022
0.062213387
0.042472597
0.02213361
0.08315059
0.023928227
0.06460622
0.025124637
0.024526432
-0.029910281
0.009571291
0.024526432
0.03230311
0.0011964113
-0.0047856453
0.05144569
0.036490545
0.03349952
0.037686955
0.052043896
0.04725825
0.052043896
0.025722845
0.025124637
0.055633124
0.016151555
0.06879365
0.037686955
0.023928227
0.046061836
0.089132644
0.040677987
0.016151555
0.021535404
0.061615184
0.062213387
0.011964113
0.037686955
0.03230311
0.040677987
0.06580262
0.05742774
0.042472597
0.03230311
0.039481577
0.040677987
0.018544376
0.03050849
0.036490545
0.0035892338
0.0023928226
0.024526432
0.04426722
0.048454657
0.03050849
0.026919257
0.014955141
0.021535404
0.0059820567
0.05144569
0.046660043
0.0628116
0.07956135
0.03888337
0.06999007
0.03409772
-0.008973085
0.06101698
0.053240303
0.010767702
0.04426722
0.019740788
0.048454657
0.021535404
0.0029910284
0.03349952
0.052642096
0.0071784677
0.03469593
0.0029910284
-0.0023928226
0.052043896
0.0035892338
0.050249275
0.028115667
0.050249275
0.06819544
0.025722845
0.046061836
-0.0071784677
0.075972125
0.08015955
0.081355974
0.043669015
0.056231335
0.058624156
-0.03349952
0.024526432
0.023330022
-0.0059820567
0.04546363
0.00418744
0.005383851
0.03409772
0.07178468
0.020937199
-0.0035892338
0.03050849
0.058025952
0.006580262
0.037686955
0.01674976
0.0
0.0628116
0.055633124
0.023928227
0.054436717
0.020937199
0.03349952
0.014955141
-0.011365907
0.026321048
0.055633124
0.020338994
0.043070808
0.040677987
0.04127619
0.03589234
0.046660043
0.064008005
0.07178468
0.04546363
0.028115667
0.052642096
0.07477571
0.00837488
0.059222363
0.043669015
0.038285162
0.03230311
0.03349952
0.053838514
0.03409772
0.08853444
0.039481577
0.03409772
-0.018544376
-0.00837488
0.02871387
0.08733803
0.022731815
0.03469593
0.029312078
0.021535404
0.031106694
0.06520442
0.08973086
0.053240303
0.08554341
0.011365907
0.06939186
0.01794617
0.03589234
0.043070808
0.009571291
0.04426722
0.036490545
0.026919257
0.018544376
0.08255238
0.021535404
0.03290131
0.03409772
0.04486543
0.03708875
0.03888337
0.047856454
0.043669015
0.013160524
0.046660043
0.0628116
0.0945165
0.0317049
0.015553347
0.052642096
0.03529413
0.03409772
0.037686955
0.07716853
0.0023928226
0.050249275
0.026321048
0.020937199
0.043070808
0.053240303
0.022731815
0.03469593
0.042472597
0.03469593
0.011964113
0.016151555
0.031106694
0.017347965
0.00837488
0.09332009
0.050847482
0.029910281
0.059222363
0.026919257
0.040677987
0.049651075
0.018544376
0.049052864
0.019740788
0.026919257
0.04725825
0.053240303
0.028115667
0.055633124
0.017347965
0.049651075
0.07477571
0.011964113
0.042472597
0.046061836
0.059222363
0.014356935
-0.0023928226
0.037686955
0.03469593
0.037686955
0.041874398
0.006580262
0.038285162
0.046061836
-0.0077766734
0.042472597
0.041874398
0.01794617
0.03349952
0.071186475
0.07298109
0.025722845
0.050847482
0.02751746
0.019740788
0.03469593
0.052642096
0.040079776
0.07178468
0.02751746
0.023928227
0.07238289
0.00837488
0.054436717
0.08255238
0.025722845
0.025722845
0.02751746
0.016151555
0.040079776
0.04426722
0.056829542
0.011365907
0.012562319
0.017347965
0.04546363
0.03888337
0.09332009
-0.0035892338
0.01375873
0.03409772
0.066400826
0.07238289
0.0317049
0.015553347
0.024526432
0.021535404
0.02871387
0.055633124
0.040079776
0.02213361
0.017347965
0.023928227
0.0029910284
0.046061836
0.00837488
0.0077766734
0.050847482
0.03349952
0.031106694
0.015553347
-0.014356935
0.00418744
-0.023330022
0.026919257
0.06999007
0.009571291
0.06580262
0.0059820567
0.023330022
0.03888337
0.053838514
0.055633124
0.037686955
0.00059820566
0.01674976
-0.00418744
0.038285162
0.00418744
0.023330022
0.036490545
0.028115667
0.0059820567
0.025124637
-0.012562319
0.025722845
0.026321048
0.06699904
0.026321048
0.050249275
0.0
0.039481577
0.0047856453
0.010767702
0.01375873
0.042472597
0.03589234
-0.018544376
0.02871387
0.048454657
0.086141616
0.054436717
0.04725825
0.02213361
0.037686955
0.05503492
0.040677987
0.03349952
0.056231335
0.020338994
0.0634098
0.04426722
0.03050849
0.014356935
0.02871387
0.03589234
0.0077766734
0.0059820567
0.06879365
0.03469593
0.02751746
0.043070808
0.029910281
-0.018544376
0.014356935
-0.0029910284
0.025722845
0.019740788
0.025722845
0.022731815
0.02871387
0.04725825
0.053240303
0.047856454
0.06939186
0.049052864
0.04725825
0.0029910284
0.0071784677
0.042472597
0.040677987
0.03409772
0.052043896
0.07298109
0.04486543
0.012562319
0.020937199
0.012562319
0.050847482
0.0047856453
-0.006580262
0.06520442
0.058025952
0.055633124
0.04486543
0.046660043
0.061615184
0.03290131
0.10049855
0.054436717
0.07298109
0.053838514
0.060418773
0.061615184
0.041874398
0.048454657
0.084945194
0.012562319
0.029312078
-0.00059820566
0.012562319
0.02871387
0.026321048
0.00837488
0.015553347
0.019142581
0.052642096
0.07298109
0.0029910284
0.039481577
0.020937199
0.054436717
0.06879365
0.037686955
0.054436717
0.064008005
0.022731815
0.049052864
0.058624156
0.03050849
0.04546363
0.066400826
0.025124637
0.042472597
0.0023928226
0.0035892338
0.042472597
0.06999007
0.03409772
0.011365907
0.02751746
0.055633124
0.05144569
0.03290131
0.025722845
0.031106694
0.043070808
0.006580262
0.066400826
0.042472597
0.023330022
-0.010169497
0.013160524
-0.019142581
-0.0017946169
0.059820563
0.0023928226
0.04725825
0.024526432
0.03349952
0.03888337
-0.0059820567
0.015553347
0.03529413
0.02871387
0.060418773
0.096909314
0.03469593
0.031106694
0.008973085
0.026321048
0.026919257
0.04127619
-0.0017946169
0.06999007
0.038285162
0.03708875
0.0628116
0.03529413
0.037686955
0.08733803
0.0035892338
0.01375873
0.04127619
0.024526432
-0.024526432
0.03230311
0.058624156
0.062213387
0.052043896
0.048454657
0.054436717
0.03290131
0.026321048
0.029910281
0.015553347
0.005383851
0.03529413
0.04486543
0.024526432
0.0317049
0.013160524
0.07477571
0.04725825
0.029312078
0.016151555
0.026919257
0.041874398
0.036490545
0.06999007
0.018544376
0.02213361
0.028115667
0.02751746
0.081355974
0.015553347
0.06879365
0.036490545
0.03349952
0.012562319
0.043070808
0.02871387
0.0317049
0.040677987
0.016151555
-0.009571291
0.018544376
0.07298109
0.020338994
0.0071784677
0.036490545
0.056829542
0.047856454
-0.0011964113
0.0317049
0.0741775
0.022731815
0.046660043
0.009571291
0.04725825
0.08195418
0.04546363
0.023928227
0.06879365
0.064008005
0.0071784677
0.016151555
0.014356935
0.031106694
0.0071784677
0.039481577
0.02871387
0.060418773
0.059222363
0.04725825
-0.011365907
0.025124637
0.050249275
0.04486543
0.036490545
0.08255238
0.07537391
0.09092726
0.059820563
0.04546363
0.050249275
0.0317049
0.06460622
0.0317049
0.008973085
0.04127619
0.02751746
0.03589234
0.0077766734
0.016151555
0.040677987
-0.018544376
0.048454657
0.005383851
0.025124637
0.009571291
0.047856454
0.03409772
0.05742774
0.07537391
0.015553347
0.061615184
0.02751746
0.018544376
0.03708875
0.049052864
0.018544376
0.049651075
0.055633124
0.019142581
0.0017946169
0.03469593
0.023330022
-0.03529413
0.017347965
-0.008973085
0.020937199
0.08015955
0.05503492
0.03708875
0.023330022
0.020937199
0.013160524
0.040079776
0.029312078
0.052043896
0.03708875
0.043070808
0.048454657
0.05144569
0.08015955
0.08075776
0.06939186
0.03409772
0.026321048
0.0071784677
0.042472597
0.00059820566
0.049052864
0.054436717
0.053838514
0.08733803
0.053838514
0.03888337
0.06699904
0.0317049
0.040677987
0.042472597
0.046061836
0.053838514
0.058025952
0.03708875
0.03888337
0.03888337
0.02871387
0.041874398
0.023330022
0.03290131
0.039481577
0.037686955
0.058025952
-0.005383851
0.053838514
0.052043896
0.04725825
0.037686955
0.06759725
0.016151555
0.01674976
0.053838514
0.049052864
0.02751746
0.052043896
0.036490545
0.014356935
0.03529413
0.041874398
0.009571291
0.041874398
0.0
0.061615184
0.08554341
0.018544376
0.08075776
0.05742774
0.013160524
0.03349952
0.05742774
0.03708875
0.00418744
0.06819544
0.03888337
0.07238289
0.023928227
-0.0071784677
0.06460622
0.00418744
0.022731815
0.040677987
0.05144569
0.043070808
0.01794617
0.055633124
0.049052864
0.049052864
0.07058826
0.014356935
0.03409772
0.011964113
0.03230311
0.036490545
0.03409772
0.04486543
0.043669015
0.03290131
0.0023928226
0.047856454
0.06759725
0.10707881
0.031106694
0.058025952
0.02871387
0.02871387
0.03589234
0.028115667
0.021535404
0.036490545
0.02751746
0.046660043
-0.01794617
-0.013160524
0.03708875
0.06699904
0.02213361
0.04426722
0.059222363
0.048454657
0.03050849
0.011964113
0.03290131
0.02751746
0.013160524
0.03888337
0.00837488
0.03589234
0.059222363
0.08554341
0.03230311
0.025722845
0.024526432
0.0317049
-0.0017946169
0.059222363
0.038285162
0.050249275
0.071186475
0.061615184
0.036490545
0.042472597
0.011964113
0.015553347
0.03349952
0.00837488
0.04725825
0.048454657
0.019142581
0.05144569
0.0059820567
0.052642096
0.02871387
0.0011964113
0.0071784677
0.00059820566
0.02871387
0.010169497
0.043070808
0.08793623
0.031106694
0.043669015
0.03230311
0.013160524
0.061615184
0.029910281
0.050847482
-0.00837488
0.036490545
0.017347965
0.048454657
0.075972125
0.020338994
0.03529413
-0.022731815
0.06699904
0.059820563
0.08015955
0.038285162
0.03469593
0.04725825
0.021535404
0.05742774
0.064008005
0.05503492
0.046660043
0.026919257
0.06879365
0.03409772
0.054436717
0.078364946
0.058624156
0.03290131
0.059820563
0.03290131
0.0
0.04426722
-0.010767702
0.062213387
0.064008005
0.010767702
0.053838514
0.0
0.0017946169
0.014955141
0.046660043
0.07298109
0.04546363
0.015553347
0.020338994
0.016151555
0.0011964113
0.042472597
0.036490545
0.03469593
0.038285162
0.03290131
0.0
0.026321048
0.00059820566
0.011964113
0.03349952
0.013160524
0.03529413
0.020338994
0.048454657
0.043669015
0.042472597
0.019142581
0.050249275
0.014356935
0.03409772
0.09032906
0.03888337
0.0071784677
0.047856454
0.047856454
0.03050849
0.01674976
0.08195418
0.06819544
0.031106694
0.03290131
0.08315059
0.06580262
0.05503492
0.01794617
0.046660043
0.025124637
0.03050849
0.009571291
-0.011365907
0.041874398
0.01674976
0.0059820567
0.03529413
0.066400826
0.06699904
0.026321048
0.062213387
0.043070808
0.038285162
0.03349952
0.02871387
0.009571291
0.024526432
0.028115667
0.05503492
0.037686955
0.049651075
0.039481577
0.010169497
0.03888337
0.052043896
0.03589234
0.019142581
0.06580262
0.03469593
0.023928227
0.03589234
0.06879365
0.029910281
0.01674976
0.02213361
0.060418773
0.07178468
0.040677987
0.047856454
0.06879365
0.07537391
0.031106694
0.047856454
0.0017946169
0.04486543
0.049052864
0.01794617
0.038285162
0.043070808
0.026919257
0.03050849
0.0047856453
0.03888337
0.017347965
0.050249275
0.0735793
0.06879365
0.04725825
0.014356935
0.023928227
0.031106694
0.046061836
0.011964113
0.052043896
0.028115667
0.026919257
0.07178468
0.022731815
0.06460622
0.053838514
0.037686955
0.0317049
0.06759725
0.023928227
0.031106694
0.023928227
0.029312078
0.00418744
0.04546363
0.037686955
0.025124637
0.023330022
0.048454657
0.043070808
0.064008005
0.053240303
0.06939186
0.026919257
0.06939186
0.03290131
0.056829542
0.03888337
0.041874398
0.03469593
0.06699904
0.03888337
0.02751746
0.041874398
0.028115667
0.03589234
-0.010767702
0.03888337
0.0017946169
0.06101698
0.037686955
0.02751746
-0.010169497
0.040079776
0.04127619
0.03050849
0.05144569
0.018544376
0.03529413
0.058624156
-0.0047856453
0.09212367
0.04426722
0.037686955
0.050847482
0.058624156
0.00837488
0.028115667
0.023928227
0.058025952
0.0071784677
0.053240303
0.013160524
0.02871387
0.02751746
0.026321048
0.023330022
0.023928227
0.01794617
0.0741775
0.04486543
0.05742774
0.029312078
0.06879365
0.03290131
0.0023928226
0.046660043
0.03469593
0.03589234
0.054436717
0.017347965
0.058025952
0.059820563
0.041874398
0.019740788
0.036490545
0.07058826
0.03589234
0.03050849
0.0077766734
0.040677987
0.08673982
0.06939186
0.060418773
0.058025952
0.05742774
0.055633124
0.03529413
0.017347965
-0.0017946169
0.046061836
0.021535404
0.05503492
0.036490545
0.03349952
-0.03589234
0.016151555
0.031106694
0.07956135
0.037686955
0.0628116
0.052642096
0.039481577
0.03409772
0.0059820567
0.024526432
0.00418744
0.040079776
0.015553347
0.09212367
0.021535404
0.03529413
0.052043896
0.05503492
0.03469593
0.05742774
0.025124637
0.048454657
0.05144569
0.04127619
-0.026321048
0.021535404
0.03050849
0.04426722
0.022731815
0.031106694
0.061615184
-0.009571291
0.022731815
0.0628116
0.026321048
0.03529413
0.040677987
0.07477571
0.02213361
0.020937199
0.01375873
0.04725825
0.043669015
0.037686955
0.043669015
0.015553347
0.00059820566
0.02751746
0.03708875
0.03708875
0.03230311
0.0071784677
0.056829542
0.054436717
0.049052864
0.04546363
0.026321048
0.07238289
0.050847482
0.01375873
0.0011964113
0.06879365
0.026321048
0.03469593
0.024526432
0.049651075
0.058025952
0.016151555
0.083748795
0.055633124
0.02751746
0.06939186
0.04725825
0.046061836
-0.0077766734
0.078364946
0.07238289
0.053240303
0.03050849
0.049052864
0.011964113
0.05742774
0.02871387
0.016151555
0.03349952
0.058025952
0.04546363
0.023928227
0.07896315
0.006580262
0.023928227
0.059820563
0.04725825
0.06520442
0.026919257
0.010169497
0.058025952
0.058025952
0.029312078
0.03290131
0.018544376
0.0317049
0.05144569
0.024526432
0.019740788
0.008973085
0.02213361
0.07058826
0.058025952
-0.005383851
0.014356935
0.050249275
0.038285162
0.096311115
0.023928227
0.021535404
0.08315059
0.058025952
0.06699904
0.03349952
0.06101698
0.061615184
0.08015955
0.043669015
0.043669015
0.024526432
0.006580262
0.0735793
0.017347965
0.040079776
0.056231335
0.06580262
0.01794617
0.07537391
0.0741775
0.03409772
0.014955141
0.011964113
0.049052864
0.014955141
0.04486543
0.08315059
0.04486543
0.01794617
0.052642096
-0.0017946169
0.026919257
0.03349952
0.010169497
0.01794617
0.011365907
0.03230311
0.012562319
0.017347965
0.024526432
0.03230311
0.06580262
0.02751746
0.06460622
0.050847482
0.04546363
0.06759725
0.031106694
-0.0029910284
0.014356935
0.04426722
0.042472597
0.046660043
0.005383851
-0.029312078
0.0023928226
0.053240303
0.0634098
0.04546363
0.041874398
-0.01794617
0.03888337
0.043070808
0.05144569
0.02213361
0.019740788
0.040079776
0.04546363
0.05503492
0.0035892338
0.07477571
0.022731815
0.056231335
0.06759725
0.07238289
0.03589234
0.01794617
0.026919257
0.031106694
0.064008005
0.0634098
0.056829542
0.049052864
0.08075776
0.00059820566
0.026321048
0.037686955
0.049651075
0.01375873
0.052642096
0.07477571
0.053838514
0.029910281
0.028115667
0.04725825
0.029910281
0.046061836
0.08973086
0.050847482
0.03888337
0.046660043
0.00837488
0.04127619
0.021535404
0.06580262
0.059820563
0.036490545
0.02213361
0.039481577
0.04127619
0.061615184
0.058624156
0.043669015
0.01674976
-0.028115667
0.09212367
0.036490545
0.046660043
0.076570325
0.054436717
0.031106694
0.015553347
0.03589234
0.042472597
0.0735793
0.05144569
0.03888337
0.06879365
0.00418744
0.05503492
0.022731815
0.03409772
0.02751746
0.025124637
0.047856454
0.02871387
0.046660043
0.014955141
0.022731815
0.06879365
0.03050849
0.005383851
0.038285162
0.04546363
0.028115667
0.036490545
0.0628116
0.038285162
0.022731815
0.026321048
0.022731815
0.054436717
0.058624156
0.058025952
0.046660043
0.0011964113
0.015553347
0.031106694
0.016151555
0.020937199
0.0634098
0.010169497
0.03469593
0.049651075
0.056829542
0.042472597
0.048454657
0.050249275
0.021535404
0.053240303
0.046660043
0.040677987
0.036490545
0.0029910284
0.04127619
0.037686955
0.04486543
0.07716853
0.02213361
-0.00059820566
-0.009571291
0.0077766734
0.03888337
0.026919257
0.08075776
0.058624156
0.04426722
0.029312078
0.01794617
0.055633124
0.056829542
0.012562319
-0.0047856453
0.020937199
0.0071784677
0.018544376
0.015553347
0.03050849
0.010767702
0.038285162
0.048454657
0.0634098
0.006580262
0.019740788
0.031106694
0.0317049
0.024526432
0.01794617
0.10767703
0.020338994
0.023928227
0.022731815
0.04426722
0.049052864
0.053838514
0.043669015
0.049052864
0.04546363
0.06939186
0.037686955
0.058025952
0.050847482
0.058025952
-0.0011964113
-0.020338994
0.025722845
0.03469593
0.0077766734
0.06101698
0.03349952
0.03589234
0.061615184
0.0628116
-0.011964113
0.05742774
0.03529413
0.10289138
0.046061836
0.018544376
0.07776674
0.048454657
0.03050849
0.049052864
0.029910281
0.039481577
0.043070808
0.046061836
0.06759725
-0.0035892338
0.019142581
0.040079776
0.056231335
0.005383851
0.023330022
-0.019740788
0.03050849
0.03230311
0.049052864
-0.0035892338
-0.014356935
0.053838514
0.07896315
0.015553347
0.0071784677
-0.009571291
0.017347965
0.053838514
0.055633124
0.01674976
0.052043896
0.03349952
-0.00418744
0.060418773
0.022731815
0.02213361
0.03230311
0.03349952
0.012562319
0.0634098
0.022731815
0.018544376
0.014356935
0.053240303
-0.020937199
0.021535404
0.021535404
0.0
0.019142581
0.017347965
0.041874398
0.017347965
0.018544376
0.022731815
0.060418773
0.011365907
0.020937199
-0.039481577
0.0735793
0.038285162
0.00059820566
0.08015955
0.046061836
0.05144569
0.026919257
0.083748795
0.052043896
0.038285162
0.031106694
0.046061836
0.009571291
0.03888337
0.03230311
0.049052864
0.071186475
0.060418773
0.026321048
0.04127619
0.055633124
0.014356935
0.040079776
0.03589234
0.010169497
0.0047856453
0.03349952
0.047856454
0.052043896
0.02751746
0.053240303
0.0023928226
0.05503492
0.04486543
0.02213361
0.014955141
0.029910281
0.0634098
0.008973085
0.018544376
0.041874398
0.025722845
0.06819544
0.008973085
0.026321048
0.011365907
0.04486543
0.052043896
0.047856454
0.08015955
0.059820563
0.021535404
0.03888337
0.046061836
0.029910281
0.03529413
0.056231335
0.062213387
0.052043896
0.023928227
0.03589234
0.02751746
0.03708875
0.0317049
0.039481577
0.08015955
-0.025124637
0.064008005
0.096311115
0.039481577
0.066400826
0.06759725
-0.0011964113
0.028115667
0.046660043
0.02871387
0.046660043
0.06939186
0.052642096
0.02871387
0.06939186
0.052642096
-0.0023928226
0.049052864
0.05144569
0.0035892338
0.048454657
0.03409772
0.043070808
0.028115667
0.026919257
0.043669015
0.043669015
0.048454657
0.046061836
0.04486543
0.071186475
0.040677987
0.07537391
-0.0017946169
0.049052864
0.038285162
0.06460622
0.03529413
0.022731815
0.037686955
0.024526432
-0.010169497
0.029910281
0.042472597
0.04127619
0.039481577
0.047856454
0.06939186
0.06879365
0.04725825
0.020338994
0.042472597
0.04486543
0.075972125
0.081355974
0.046061836
-0.00059820566
0.02213361
-0.012562319
0.026919257
0.05503492
0.0017946169
0.039481577
0.03349952
0.03708875
-0.00059820566
0.04426722
0.037686955
0.015553347
0.049651075
0.037686955
0.07298109
0.03290131
0.031106694
0.020338994
0.050249275
0.03230311
-0.0077766734
0.025124637
0.056829542
0.019740788
0.0
0.040677987
0.039481577
0.08793623
0.047856454
0.058624156
0.03589234
0.078364946
0.059222363
0.023330022
0.052642096
0.015553347
0.041874398
0.0077766734
-0.0017946169
0.047856454
0.09391828
0.047856454
0.04725825
0.050847482
0.03050849
0.011964113
0.058025952
0.029312078
0.04426722
0.052642096
0.049052864
0.042472597
0.052642096
0.008973085
0.039481577
0.029910281
-0.0023928226
0.05742774
0.039481577
0.0735793
0.0945165
0.026919257
0.03230311
0.026321048
0.04486543
0.03708875
0.01674976
0.031106694
0.024526432
0.010767702
0.01794617
0.020338994
0.050847482
0.04426722
0.04426722
0.024526432
0.064008005
0.061615184
0.03589234
0.03290131
0.046660043
0.04426722
0.08554341
0.03469593
0.096909314
0.04486543
0.08195418
0.07537391
0.019142581
0.043070808
0.00059820566
0.036490545
0.066400826
0.043070808
-0.0059820567
0.04127619
0.037686955
0.04127619
-0.0017946169
0.04486543
0.02751746
0.014356935
0.037686955
0.0077766734
0.04546363
0.052642096
0.03349952
0.014955141
0.0059820567
-0.009571291
-0.012562319
0.026321048
0.03708875
0.03888337
0.03529413
0.02751746
0.06939186
-0.014356935
0.0735793
0.040079776
0.0017946169
0.050847482
0.056231335
0.036490545
0.049052864
0.08075776
0.048454657
0.06101698
0.040677987
0.048454657
0.07058826
0.036490545
0.084945194
0.05742774
0.052043896
0.012562319
0.025722845
0.046660043
0.042472597
0.03529413
0.040677987
0.006580262
0.04426722
0.023330022
0.014955141
0.059820563
0.0628116
0.03349952
0.048454657
0.04426722
0.025124637
0.018544376
0.03708875
0.041874398
0.06819544
0.040677987
0.07896315
0.05742774
0.056829542
0.0628116
0.0047856453
0.021535404
0.0077766734
0.060418773
0.03230311
0.020937199
0.040677987
0.023928227
0.014356935
0.048454657
0.054436717
0.053240303
0.046061836
0.053240303
0.058025952
0.058025952
0.0317049
0.008973085
0.0047856453
0.047856454
-0.0011964113
0.054436717
0.040677987
0.03529413
0.008973085
0.06520442
0.043070808
-0.0047856453
0.040677987
0.03349952
0.012562319
0.019142581
0.010767702
0.02751746
0.05144569
0.031106694
0.016151555
0.04486543
0.084347
0.0735793
0.064008005
0.07238289
0.050847482
0.018544376
0.049052864
0.012562319
0.02871387
0.061615184
0.050847482
0.01375873
0.026919257
0.02871387
0.024526432
0.017347965
0.01375873
0.010169497
0.03290131
0.056231335
0.053240303
0.015553347
0.054436717
0.01674976
0.04486543
0.040079776
0.07058826
0.03708875
0.048454657
0.03290131
0.03888337
-0.0071784677
0.06101698
0.042472597
0.06101698
-0.0029910284
0.040079776
0.0317049
0.020937199
0.011365907
0.03349952
0.041874398
0.031106694
0.029312078
0.02871387
0.07956135
0.0023928226
0.021535404
0.03409772
0.03888337
0.059222363
0.04546363
0.055633124
0.078364946
0.039481577
0.03349952
0.025722845
0.056829542
0.083748795
0.058025952
0.053838514
0.049651075
0.05742774
0.0317049
0.061615184
0.055633124
0.041874398
0.06460622
0.050847482
0.0735793
0.043070808
0.011964113
0.06939186
0.03589234
0.05742774
0.06879365
0.050847482
0.07238289
-0.0029910284
0.029312078
0.012562319
0.014356935
0.031106694
0.03290131
0.029910281
0.04486543
0.025722845
0.053240303
0.0059820567
0.012562319
0.054436717
0.06101698
0.062213387
0.06460622
0.0317049
0.06460622
0.025124637
0.07238289
0.08973086
0.019142581
0.042472597
0.039481577
0.042472597
0.05144569
0.046061836
0.05144569
0.06101698
0.059222363
0.02751746
0.00418744
0.026919257
0.040079776
0.047856454
0.02871387
0.039481577
0.029312078
0.04486543
0.05144569
0.029910281
0.03469593
0.06879365
0.02751746
0.006580262
0.0047856453
0.03529413
0.036490545
0.02213361
0.031106694
0.024526432
0.021535404
0.06819544
0.040079776
0.03290131
0.048454657
0.03529413
0.043669015
0.0735793
0.01674976
0.03469593
0.041874398
0.05742774
0.02213361
0.05503492
0.041874398
0.06580262
0.047856454
0.049052864
0.04725825
0.021535404
0.021535404
0.028115667
0.03290131
0.059222363
0.03409772
0.03529413
0.06580262
0.010169497
-0.017347965
0.03708875
0.041874398
0.06101698
0.048454657
0.02871387
0.03529413
0.012562319
0.046061836
0.00059820566
0.084945194
0.04127619
0.050847482
0.010169497
-0.02213361
0.014356935
0.08255238
0.02751746
0.023330022
-0.011964113
-0.010169497
0.0047856453
0.076570325
0.04127619
0.058025952
0.056829542
0.026919257
0.00059820566
0.00837488
0.053838514
0.010767702
-0.006580262
0.04486543
0.019142581
0.039481577
0.011964113
0.03708875
0.07178468
0.076570325
0.025124637
0.03050849
0.08315059
0.04426722
0.017347965
0.01375873
0.06939186
0.08973086
0.050249275
0.049052864
0.037686955
0.052642096
0.046660043
0.00837488
0.03708875
0.046660043
0.060418773
0.03050849
0.03349952
0.08673982
0.066400826
0.06580262
0.07477571
0.029312078
-0.025722845
0.04426722
0.04725825
0.010767702
0.06101698
0.06879365
0.014356935
0.046061836
0.03529413
0.043070808
0.084347
0.04426722
0.03888337
0.048454657
0.047856454
0.03888337
-0.0029910284
0.03290131
0.010767702
0.010767702
0.023928227
0.08075776
0.03469593
0.052043896
0.014356935
0.059820563
0.07238289
0.04426722
0.049052864
0.028115667
0.07537391
0.08015955
0.03290131
0.03469593
0.048454657
0.02871387
0.048454657
0.0735793
0.06939186
0.01674976
0.01794617
0.08673982
0.023330022
0.04725825
0.0628116
0.024526432
0.041874398
0.020338994
0.049651075
0.052642096
0.018544376
0.043070808
0.04546363
0.048454657
0.047856454
0.08015955
0.03469593
0.00837488
0.029312078
-0.00418744
-0.011365907
-0.0071784677
0.0035892338
0.053240303
0.029910281
0.039481577
0.04426722
0.058624156
0.016151555
0.03230311
0.031106694
0.00418744
0.0317049
0.031106694
0.048454657
-0.012562319
0.064008005
0.014356935
0.047856454
0.00059820566
0.01375873
0.031106694
0.005383851
0.026321048
0.046061836
0.0
0.013160524
0.043669015
0.052642096
0.02751746
0.060418773
0.026321048
0.026919257
0.039481577
0.06819544
-0.012562319
0.052642096
0.0029910284
0.062213387
-0.010767702
0.043070808
0.011365907
0.018544376
-0.00059820566
0.023330022
0.041874398
0.040677987
0.07298109
0.046660043
0.023928227
0.021535404
0.04426722
0.064008005
0.022731815
0.076570325
0.05503492
0.050847482
0.064008005
0.059820563
0.03409772
0.029312078
0.00837488
0.038285162
0.083748795
0.006580262
0.03349952
-0.0011964113
-0.029910281
0.022731815
-0.0011964113
0.04127619
0.031106694
0.038285162
0.03888337
0.01794617
0.03708875
0.058624156
0.048454657
0.03349952
0.008973085
0.03529413
0.06819544
0.046061836
0.014955141
0.04486543
0.025722845
0.036490545
0.03230311
0.053838514
-0.0023928226
0.028115667
0.03290131
0.03708875
0.062213387
0.025722845
0.014356935
0.03469593
0.06999007
0.05144569
0.03589234
0.06879365
0.040677987
0.03050849
0.0634098
-0.011365907
0.024526432
0.04127619
0.023928227
0.019740788
0.023928227
0.056829542
0.056231335
0.06819544
0.025124637
-0.0029910284
0.06879365
0.0634098
0.04127619
0.03230311
0.06460622
0.018544376
0.059222363
-0.012562319
0.028115667
0.054436717
0.04486543
0.046660043
0.052642096
0.012562319
0.058624156
0.026919257
0.037686955
0.07298109
0.023928227
0.071186475
0.039481577
0.00837488
0.05503492
0.053240303
0.011365907
0.053838514
0.055633124
0.04546363
0.029312078
0.052642096
0.020338994
0.017347965
0.015553347
0.058025952
0.025124637
0.009571291
0.03230311
0.010169497
0.06819544
0.0628116
0.040079776
0.03409772
-0.012562319
-0.0059820567
0.028115667
0.0317049
0.0317049
0.026321048
0.049651075
0.041874398
0.08973086
0.03349952
0.0628116
0.0317049
0.00837488
0.009571291
0.039481577
0.05742774
0.038285162
0.02751746
0.024526432
0.055633124
0.053240303
0.026321048
0.050847482
0.014356935
0.04546363
0.020937199
0.060418773
0.05144569
-0.00418744
0.052043896
0.04426722
0.006580262
0.043070808
0.040677987
0.041874398
0.011964113
0.046061836
0.0317049
0.06460622
0.040677987
0.060418773
0.0741775
0.064008005
-0.0035892338
0.05144569
0.0047856453
0.015553347
0.03230311
0.018544376
-0.0035892338
0.058025952
0.026321048
0.0059820567
0.021535404
0.06101698
0.022731815
0.03888337
0.049651075
0.052043896
0.037686955
0.066400826
0.08075776
-0.00059820566
0.03469593
0.02751746
0.005383851
0.03050849
0.029312078
0.039481577
0.010169497
0.008973085
0.013160524
0.050847482
0.019740788
0.046061836
0.023928227
0.010767702
0.026919257
0.053240303
0.009571291
-0.011365907
0.04127619
0.04725825
0.010169497
0.064008005
0.00837488
0.026919257
0.08733803
0.06819544
0.06819544
0.042472597
0.03409772
0.01375873
0.03708875
0.07956135
0.04426722
0.06101698
0.015553347
0.058025952
0.076570325
0.016151555
0.07477571
0.064008005
0.023928227
0.03349952
0.055633124
0.042472597
0.043070808
0.05503492
0.040677987
0.041874398
0.05503492
0.01794617
0.03409772
0.042472597
0.03050849
0.04546363
0.046660043
0.052043896
0.048454657
0.059820563
0.006580262
0.01674976
0.07776674
0.022731815
0.008973085
0.023330022
0.013160524
0.03050849
0.043070808
0.09930215
0.07178468
0.00418744
0.053240303
0.061615184
0.08255238
-0.014356935
0.043070808
0.046660043
0.040079776
0.03409772
0.031106694
0.00418744
0.06520442
0.029910281
0.0077766734
0.052642096
0.025722845
0.010767702
0.024526432
0.06460622
0.048454657
0.06101698
0.04127619
0.03529413
0.02751746
0.03290131
0.055633124
0.03529413
0.016151555
0.029910281
0.058025952
0.0628116
0.02871387
-0.0059820567
0.015553347
0.08015955
0.03529413
0.0077766734
0.03349952
0.059820563
0.047856454
0.05503492
0.0017946169
0.03409772
0.058624156
0.042472597
0.01794617
0.011964113
0.02213361
0.052043896
0.037686955
0.040677987
0.09750752
0.03409772
0.059222363
0.040079776
0.03529413
0.07178468
0.0077766734
0.06879365
0.03469593
-0.01375873
0.005383851
0.043669015
0.07537391
0.029312078
0.049052864
0.03529413
0.06999007
0.0628116
0.03230311
0.096909314
0.03469593
0.050249275
0.049651075
0.040677987
0.010169497
0.04127619
0.040677987
0.04546363
0.06999007
0.09092726
0.023928227
0.022731815
0.050847482
0.03708875
0.018544376
0.012562319
0.031106694
0.04486543
0.029910281
0.02871387
0.06819544
0.048454657
0.052043896
0.020937199
0.019740788
0.047856454
0.024526432
0.06460622
0.056231335
0.03409772
0.015553347
-0.0035892338
0.058025952
0.022731815
0.03529413
0.056231335
0.0023928226
0.03230311
0.0071784677
0.042472597
0.056231335
-0.0023928226
0.0059820567
0.03349952
0.040677987
-0.0017946169
0.05144569
0.03589234
0.0029910284
0.041874398
0.043669015
0.019142581
0.06939186
0.06879365
0.04546363
0.016151555
0.046660043
-0.00418744
0.01794617
0.025124637
0.046660043
0.048454657
-0.012562319
0.009571291
0.06999007
0.07477571
0.03409772
0.06520442
0.021535404
0.04486543
0.014955141
0.006580262
0.029910281
0.00837488
0.019740788
0.042472597
0.0035892338
0.023330022
0.03230311
0.029910281
-0.0071784677
0.038285162
0.041874398
0.03349952
0.01674976
0.04127619
0.04127619
0.03349952
0.038285162
0.06879365
0.043669015
0.026321048
0.039481577
0.059222363
0.056231335
0.02213361
-0.0017946169
0.021535404
-0.012562319
0.03050849
-0.005383851
0.01674976
0.03230311
-0.0035892338
-0.008973085
0.050847482
0.046061836
0.03409772
-0.0023928226
0.053838514
0.091525465
0.03290131
0.053838514
0.09571291
0.049052864
0.020338994
0.029910281
0.049052864
0.0317049
0.049052864
0.026919257
0.055633124
0.046061836
0.024526432
-0.0071784677
0.036490545
0.01375873
0.031106694
0.031106694
0.0047856453
0.053240303
0.049651075
0.039481577
0.029910281
0.038285162
0.08015955
0.07178468
0.02751746
0.031106694
0.061615184
0.054436717
0.009571291
0.00059820566
0.049651075
0.03708875
0.056231335
0.052043896
0.011365907
0.06819544
0.06699904
0.011964113
0.024526432
0.06580262
0.03409772
0.028115667
0.02751746
0.025722845
0.05503492
0.015553347
0.005383851
0.04127619
0.08255238
0.03888337
0.023330022
0.08075776
0.038285162
0.043669015
0.0628116
0.05742774
0.026919257
0.047856454
0.06699904
0.06101698
0.036490545
0.07178468
0.023330022
0.037686955
0.00418744
0.076570325
0.043669015
0.055633124
0.056231335
-0.0023928226
0.008973085
0.015553347
0.019740788
0.049052864
0.021535404
-0.005383851
0.061615184
0.0741775
0.023928227
0.012562319
0.052043896
0.013160524
0.06520442
0.047856454
-0.011365907
0.02751746
-0.023928227
0.06879365
0.058624156
0.041874398
0.059222363
0.03708875
0.006580262
0.03589234
0.023928227
0.00837488
0.06819544
0.05144569
0.0317049
0.040677987
0.056231335
0.059820563
0.043669015
0.020937199
0.040079776
0.04127619
0.046660043
0.023330022
0.031106694
0.0317049
0.020937199
0.050249275
0.01375873
0.071186475
0.036490545
-0.009571291
0.01375873
0.010767702
0.006580262
0.005383851
0.020338994
0.03469593
0.029910281
0.06819544
0.03409772
0.04546363
0.052043896
0.09032906
0.031106694
0.010767702
0.02213361
0.0059820567
0.012562319
0.02751746
0.04426722
0.07896315
0.049651075
0.049651075
0.01375873
0.04725825
0.036490545
0.04486543
0.09930215
0.046660043
0.024526432
0.031106694
0.053240303
0.020937199
0.039481577
0.066400826
0.056231335
0.043669015
0.010169497
0.018544376
0.028115667
0.09272188
0.07178468
0.011964113
0.039481577
0.052043896
0.049052864
0.07896315
0.058025952
0.02751746
0.026919257
0.01794617
0.038285162
0.03409772
0.020338994
0.08075776
0.028115667
0.01794617
0.010767702
0.043669015
0.056829542
0.06759725
0.03349952
0.052642096
0.050249275
0.04546363
0.04127619
0.029312078
0.03708875
0.02751746
0.023928227
0.0
0.040079776
0.0317049
0.023330022
0.059820563
0.046061836
0.10707881
0.04127619
0.08015955
0.013160524
0.04546363
0.02213361
0.0741775
0.040677987
0.029910281
0.029312078
0.052642096
0.050847482
0.042472597
0.041874398
0.040677987
0.017347965
0.025722845
0.04127619
0.03050849
0.048454657
0.005383851
0.03708875
0.03409772
-0.0017946169
0.019142581
0.005383851
0.08793623
0.03888337
0.020338994
0.053240303
0.084945194
0.041874398
0.091525465
0.043070808
0.0047856453
0.0035892338
0.009571291
0.046061836
0.048454657
0.050847482
0.020937199
0.022731815
0.04725825
0.03349952
0.04725825
-0.00059820566
0.050847482
0.020338994
0.026321048
0.060418773
0.049651075
0.012562319
0.08075776
0.041874398
0.017347965
0.050847482
0.062213387
0.047856454
0.023928227
0.07716853
0.050249275
0.052043896
0.09032906
0.018544376
0.04426722
0.0071784677
0.040677987
0.029910281
0.06699904
0.039481577
0.028115667
0.019740788
0.050249275
-0.005383851
0.043669015
0.059222363
0.0634098
0.056231335
0.056231335
0.026919257
0.020937199
0.015553347
0.023928227
0.029910281
0.047856454
0.043669015
0.024526432
0.011365907
0.0023928226
0.02871387
0.050249275
0.08015955
0.07238289
0.037686955
0.03349952
0.022731815
0.03529413
0.029910281
0.03888337
0.081355974
0.02871387
0.022731815
0.04426722
0.03888337
0.03469593
0.08673982
0.011964113
0.024526432
0.048454657
0.05742774
0.07956135
0.0741775
0.046660043
0.04127619
0.022731815
0.03708875
0.03469593
0.06759725
0.024526432
0.028115667
0.025722845
0.019740788
0.058025952
0.019740788
0.040677987
0.061615184
0.0634098
0.076570325
0.071186475
0.064008005
0.083748795
0.06520442
0.064008005
0.05742774
0.059820563
0.08315059
0.081355974
0.0628116
0.03529413
0.03290131
-0.0017946169
0.03589234
0.053240303
0.046061836
0.054436717
-0.008973085
0.03050849
0.06101698
0.055633124
0.058624156
0.014955141
-0.043669015
0.02751746
0.0035892338
0.06101698
0.084945194
0.04725825
0.029312078
0.042472597
0.025124637
0.08075776
0.03290131
0.05503492
0.04486543
0.010767702
0.010767702
0.039481577
0.046061836
0.023330022
0.029910281
0.0029910284
-0.0047856453
0.053838514
0.03589234
0.06101698
0.049651075
0.047856454
-0.00059820566
0.04127619
0.06580262
0.00059820566
0.02871387
0.023330022
0.056231335
0.07477571
0.03409772
0.026919257
0.08673982
0.05742774
0.056829542
0.04725825
0.0023928226
0.0023928226
0.029910281
0.011964113
0.026321048
0.017347965
0.06580262
0.036490545
-0.046660043
-0.024526432
0.053838514
0.03469593
0.029312078
0.023330022
0.07298109
0.046660043
0.049052864
-0.0047856453
0.056829542
0.014955141
0.03708875
0.036490545
0.040677987
0.03409772
0.011964113
0.05144569
0.010169497
0.031106694
0.03349952
0.006580262
0.046660043
0.023928227
0.058025952
0.01375873
0.03409772
0.009571291
0.02213361
0.02871387
0.052642096
0.006580262
0.0059820567
0.036490545
0.028115667
0.053838514
0.009571291
0.05144569
0.059820563
0.02751746
0.025722845
0.02751746
0.046660043
0.019740788
0.021535404
0.048454657
0.01794617
0.046061836
0.059222363
-0.0035892338
0.010767702
0.047856454
0.020937199
0.042472597
0.036490545
0.046660043
0.04486543
0.01674976
0.03290131
0.052642096
0.07058826
0.050249275
0.005383851
0.011365907
0.06460622
0.046660043
0.022731815
0.043669015
0.03050849
0.062213387
0.043070808
0.052642096
0.020937199
0.03529413
-0.013160524
0.043070808
0.03230311
0.043669015
0.011365907
0.0628116
0.04426722
0.03230311
0.053240303
0.06819544
0.060418773
0.024526432
0.024526432
0.00059820566
0.010767702
0.058624156
0.053240303
0.050847482
0.028115667
0.01674976
0.06101698
0.049052864
0.071186475
0.054436717
0.08315059
0.04127619
0.043070808
0.010767702
0.01375873
0.056829542
0.07716853
0.058624156
0.058624156
0.05503492
-0.00418744
0.04426722
0.019142581
0.05144569
0.058624156
0.07896315
0.08015955
0.046061836
0.0059820567
0.043070808
0.050249275
0.04725825
0.025124637
0.049651075
0.058025952
0.011365907
0.056231335
0.05742774
0.037686955
0.053240303
0.020338994
0.042472597
0.04725825
0.054436717
0.04127619
0.026919257
0.0017946169
0.014356935
0.06580262
0.039481577
0.060418773
0.02871387
0.03409772
0.06819544
0.03708875
0.05503492
0.053240303
0.02213361
0.03589234
0.03230311
0.031106694
0.0017946169
0.039481577
0.056231335
0.03469593
-0.006580262
0.017347965
0.018544376
0.02871387
0.029312078
0.01375873
0.03589234
0.04546363
0.059820563
0.036490545
0.010169497
-0.0023928226
0.042472597
0.0035892338
0.049052864
0.06879365
0.036490545
0.00837488
-0.011365907
0.064008005
0.018544376
0.076570325
0.0071784677
0.026919257
0.09092726
0.052043896
0.059820563
0.038285162
0.047856454
-0.006580262
-0.0017946169
0.03888337
0.03050849
0.062213387
0.028115667
-0.010767702
0.081355974
0.054436717
0.0035892338
0.038285162
0.08315059
0.031106694
0.020338994
0.0029910284
0.040079776
0.03230311
0.076570325
0.049651075
0.009571291
0.054436717
0.043070808
0.03409772
0.026321048
0.026321048
0.037686955
0.046660043
0.066400826
0.11545369
0.049651075
0.0047856453
0.029312078
0.03888337
0.064008005
0.06879365
0.023928227
0.053240303
0.02871387
0.060418773
0.041874398
0.06939186
0.037686955
0.07716853
0.062213387
0.046660043
0.07178468
0.013160524
0.023928227
0.040079776
0.078364946
0.023330022
0.023330022
0.020338994
0.00059820566
-0.025124637
0.03888337
0.01674976
-0.0071784677
-0.014356935
0.04426722
0.028115667
0.03050849
0.015553347
0.03349952
0.02213361
0.009571291
-0.006580262
0.049651075
0.05742774
0.06460622
0.02871387
-0.0047856453
0.03349952
0.012562319
0.025124637
0.043070808
0.043070808
0.04546363
0.060418773
0.084945194
0.056231335
0.031106694
0.02213361
0.04426722
0.04426722
-0.006580262
0.03708875
0.050249275
0.03409772
0.039481577
0.054436717
0.062213387
0.03708875
0.049052864
0.09032906
0.049651075
0.058025952
-0.006580262
-0.01375873
0.07716853
0.049651075
0.062213387
0.026919257
0.019740788
-0.0071784677
0.013160524
0.023928227
0.029312078
0.07956135
0.062213387
0.03708875
0.08015955
0.09092726
0.0741775
0.09391828
0.07178468
0.026919257
0.025722845
0.05144569
0.05144569
0.055633124
0.029910281
0.023330022
0.023330022
0.015553347
0.061615184
0.075972125
0.03050849
0.058025952
0.07238289
0.019142581
0.021535404
0.042472597
0.06999007
0.005383851
0.07956135
0.01375873
0.050249275
0.071186475
0.016151555
0.014955141
0.020338994
0.10229316
0.049651075
0.047856454
0.040677987
0.05144569
0.019142581
0.012562319
0.052043896
0.05742774
0.0035892338
0.011365907
0.043070808
0.021535404
0.009571291
0.029910281
0.03888337
0.046660043
0.052043896
0.028115667
0.048454657
0.052642096
0.06819544
0.08973086
0.059820563
0.062213387
0.019142581
0.037686955
0.023330022
0.03230311
0.018544376
0.029910281
0.006580262
0.041874398
0.052043896
0.10408779
0.056829542
0.06819544
0.059222363
0.06879365
0.049651075
0.04127619
0.03349952
0.0735793
0.066400826
0.03708875
0.026919257
0.03708875
0.04486543
0.07716853
0.04546363
0.040677987
0.0317049
0.031106694
0.010767702
0.02871387
0.036490545
0.016151555
-0.010169497
0.0317049
0.013160524
0.03589234
0.03230311
0.023928227
0.0035892338
0.02213361
0.026321048
0.050847482
0.0317049
0.060418773
0.058025952
0.07896315
0.09332009
0.03589234
0.056829542
0.0077766734
0.018544376
0.03589234
0.0017946169
0.01674976
0.040677987
0.043669015
0.012562319
0.0011964113
0.050847482
-0.012562319
0.048454657
0.040677987
0.021535404
0.023330022
0.048454657
0.04127619
0.066400826
0.046660043
0.026321048
0.02213361
0.048454657
0.015553347
0.052043896
0.041874398
0.07537391
0.053838514
0.08673982
0.036490545
0.048454657
0.0317049
0.049651075
0.0317049
0.10109676
0.066400826
0.03230311
0.029312078
0.0741775
0.053838514
0.046660043
0.04426722
0.008973085
0.040677987
0.04127619
0.026919257
0.012562319
0.024526432
0.036490545
0.0023928226
0.016151555
0.059222363
0.03469593
0.060418773
0.041874398
0.061615184
0.06520442
0.014955141
0.064008005
0.039481577
0.031106694
0.037686955
0.00418744
0.011964113
0.050847482
0.07238289
0.03589234
0.006580262
0.04426722
0.07178468
0.02213361
0.0951147
0.018544376
0.038285162
0.011365907
0.020338994
0.078364946
0.019142581
0.03888337
0.015553347
0.00418744
0.006580262
0.024526432
0.062213387
0.028115667
0.042472597
0.03230311
0.058624156
0.026321048
0.0059820567
0.03708875
0.020338994
0.018544376
0.02871387
0.03290131
0.024526432
0.041874398
0.061615184
0.054436717
0.055633124
0.038285162
0.036490545
0.03349952
0.07178468
0.09571291
0.06101698
0.048454657
0.01674976
0.029312078
0.04127619
0.059222363
0.02213361
0.03589234
0.013160524
0.05742774
0.056829542
0.041874398
-0.017347965
0.052642096
0.04127619
0.019142581
0.03708875
0.016151555
0.014356935
0.03708875
0.011365907
0.029910281
0.03409772
0.062213387
0.023928227
0.0317049
0.03529413
0.028115667
0.055633124
0.02871387
0.056231335
0.03708875
0.021535404
0.05742774
0.023330022
0.043669015
0.01674976
0.020338994
0.0029910284
0.031106694
0.0071784677
0.031106694
0.013160524
0.015553347
0.038285162
0.062213387
-0.015553347
0.023928227
-0.0011964113
0.04127619
0.03469593
0.03050849
0.0317049
0.024526432
0.019740788
0.046660043
0.039481577
0.06699904
0.03050849
0.047856454
0.052043896
0.037686955
0.037686955
0.0035892338
0.025124637
0.029312078
0.03888337
0.048454657
0.04426722
0.041874398
0.019142581
0.010767702
0.013160524
0.03290131
0.05503492
0.015553347
0.042472597
0.03409772
0.05742774
0.03050849
0.013160524
0.029910281
0.043669015
0.02213361
0.06759725
0.056829542
0.031106694
0.021535404
0.00837488
0.019142581
0.049052864
0.0059820567
0.049651075
0.054436717
0.05742774
0.056829542
0.06460622
0.014955141
0.06580262
0.043070808
0.042472597
0.029312078
0.038285162
0.010169497
0.050847482
0.042472597
0.04486543
0.01794617
0.037686955
0.043070808
0.03888337
0.02751746
0.03230311
0.0047856453
0.041874398
0.00059820566
0.016151555
0.015553347
0.02871387
0.0059820567
0.00837488
0.020338994
0.06520442
0.061615184
0.014955141
0.046061836
0.08673982
0.050847482
0.03529413
0.06759725
0.052642096
0.06699904
0.020937199
0.021535404
0.0035892338
0.040079776
-0.012562319
0.01375873
0.012562319
0.015553347
0.031106694
0.029312078
0.08255238
-0.0011964113
0.031106694
0.008973085
0.09212367
0.06460622
0.04486543
0.09810573
0.040079776
0.01794617
-0.00418744
0.009571291
0.06879365
0.037686955
0.026919257
0.07298109
0.06819544
0.04127619
0.029910281
-0.029312078
0.050249275
0.040677987
0.023330022
0.049052864
0.09930215
0.050249275
0.04127619
-0.010767702
-0.012562319
0.05503492
0.019740788
0.06939186
0.01794617
0.02751746
0.060418773
0.03708875
-0.0035892338
0.0029910284
-0.009571291
0.018544376
0.026919257
0.00418744
0.025124637
0.03888337
0.046660043
0.03050849
0.052043896
-0.008973085
0.03050849
0.01794617
0.050249275
0.03589234
0.07477571
0.07238289
0.0634098
0.005383851
0.052043896
0.02213361
0.03469593
0.037686955
0.049052864
0.06460622
-0.0023928226
0.04127619
0.014955141
0.02871387
0.052043896
0.03708875
0.019740788
0.012562319
0.010767702
0.040677987
0.042472597
0.07477571
0.05742774
0.0
0.06879365
0.06939186
0.03230311
0.026321048
0.052642096
0.046660043
0.047856454
0.049651075
0.05742774
0.03708875
0.025124637
0.009571291
0.0317049
0.019142581
0.036490545
-0.016151555
0.019740788
0.07896315
0.09870394
0.052043896
0.0077766734
0.07896315
0.02871387
0.01375873
0.049651075
0.071186475
0.037686955
0.016151555
0.0634098
0.061615184
0.03469593
0.050249275
0.05742774
0.058025952
-0.00837488
0.0071784677
0.046660043
0.066400826
0.03469593
0.028115667
0.022731815
0.03290131
0.05742774
0.050249275
0.0047856453
0.042472597
0.039481577
0.024526432
-0.011365907
0.07058826
0.043669015
-0.014356935
0.02751746
-0.008973085
-0.011365907
0.009571291
0.040677987
0.029312078
0.02751746
-0.015553347
0.0077766734
0.028115667
0.012562319
0.031106694
-0.009571291
0.031106694
0.019740788
0.019740788
0.02751746
0.050847482
0.017347965
-0.038285162
0.019740788
0.038285162
0.012562319
0.028115667
0.03708875
0.047856454
0.048454657
0.058624156
0.049052864
0.03409772
0.040079776
0.018544376
0.0317049
0.05144569
0.056829542
0.03290131
0.02751746
-0.021535404
0.01375873
0.08015955
0.043669015
0.012562319
0.016151555
0.056231335
0.025124637
0.08973086
0.01375873
0.018544376
0.04725825
0.058025952
0.04546363
0.064008005
0.0945165
0.042472597
0.04426722
0.049052864
0.05742774
0.019142581
0.071186475
0.016151555
0.036490545
0.029312078
0.06580262
0.060418773
0.014356935
0.037686955
0.005383851
0.03469593
0.04127619
0.07896315
0.050249275
0.052043896
0.060418773
0.029312078
0.07178468
0.023330022
0.06580262
0.016151555
0.062213387
0.042472597
0.04426722
0.05503492
0.04486543
0.07058826
0.047856454
0.056231335
0.020937199
0.053240303
0.0077766734
0.03290131
0.02751746
0.043070808
0.019740788
0.0077766734
0.04426722
0.022731815
0.056231335
0.089132644
0.025722845
0.0029910284
0.01375873
0.025722845
0.03290131
0.040079776
0.023330022
0.019142581
0.014356935
0.022731815
0.019142581
0.019740788
0.02751746
0.023928227
-0.00059820566
0.0029910284
0.014356935
0.023330022
0.019142581
0.026321048
0.03469593
0.03290131
0.023928227
0.03290131
-0.0035892338
0.043070808
0.050847482
0.01794617
0.023330022
0.010169497
0.011964113
0.012562319
0.0017946169
0.0035892338
0.022731815
0.029910281
0.01674976
0.029910281
0.07537391
0.038285162
0.031106694
0.03050849
0.03230311
0.076570325
0.09391828
0.03888337
0.02751746
0.03708875
0.052642096
0.042472597
0.016151555
0.04127619
0.025124637
0.025124637
0.02751746
0.046660043
-0.013160524
0.013160524
0.006580262
0.04725825
0.059222363
0.054436717
0.040079776
0.0017946169
0.0017946169
0.0029910284
0.029910281
0.10109676
0.019142581
0.04725825
0.076570325
0.050847482
0.03708875
0.049052864
0.01794617
-0.0035892338
0.043070808
0.059222363
0.04127619
0.0047856453
0.036490545
0.03230311
0.053838514
-0.0035892338
0.023928227
0.0317049
0.021535404
0.061615184
0.03050849
0.023928227
0.0628116
0.040079776
0.050249275
0.042472597
0.05742774
0.01794617
0.03230311
0.019740788
0.07477571
0.046660043
0.07178468
0.04127619
0.03290131
0.0
0.037686955
0.04546363
0.07238289
0.050249275
0.052642096
0.03230311
0.05742774
0.0059820567
0.043669015
0.02871387
0.07896315
0.06460622
0.014356935
0.011365907
0.0317049
0.015553347
-0.0017946169
0.0035892338
0.02213361
0.040677987
0.010169497
0.056829542
0.043070808
0.01375873
0.047856454
0.00837488
0.04486543
0.014955141
0.041874398
0.017347965
0.052642096
0.03230311
0.04725825
0.050847482
0.022731815
0.024526432
0.022731815
0.0035892338
0.048454657
0.055633124
0.036490545
0.03230311
0.0017946169
0.040079776
0.02751746
0.037686955
0.07716853
0.0317049
0.010169497
0.040079776
0.08255238
0.052043896
0.010169497
0.046061836
0.07058826
0.084945194
0.052043896
0.048454657
0.078364946
0.05742774
0.03050849
0.062213387
0.06580262
0.0628116
0.058025952
0.01674976
0.03529413
0.025124637
0.010767702
0.040079776
0.09092726
0.061615184
0.046061836
0.03888337
0.011365907
0.011365907
0.053240303
0.050847482
0.015553347
0.03589234
0.059222363
0.014955141
0.039481577
0.00418744
0.05503492
0.040677987
0.03409772
0.03529413
0.05144569
0.04127619
0.06819544
0.03469593
0.06460622
0.053838514
0.060418773
0.020937199
-0.0017946169
0.019740788
0.023330022
0.01375873
0.03589234
0.015553347
0.04725825
0.04426722
-0.0023928226
-0.010169497
0.0317049
-0.011964113
0.06101698
0.047856454
0.050249275
0.036490545
0.015553347
0.04127619
0.06999007
0.049052864
0.06879365
0.03529413
0.020338994
0.08853444
0.053838514
0.05742774
0.050249275
0.02871387
0.049052864
0.04546363
0.04127619
0.03349952
0.052642096
-0.008973085
0.011964113
0.050249275
0.04127619
0.040079776
0.0077766734
0.03589234
0.09032906
0.07477571
0.025124637
0.018544376
0.020338994
0.07178468
0.02871387
0.06520442
0.07298109
0.06580262
0.07058826
0.05144569
0.03708875
0.060418773
0.03708875
-0.017347965
0.014356935
0.02751746
0.010767702
0.08195418
0.0628116
0.053838514
0.014955141
0.03409772
0.054436717
0.03529413
0.096311115
0.03050849
0.055633124
0.03589234
0.052043896
0.049651075
0.0011964113
0.009571291
0.07896315
0.00837488
0.083748795
0.010169497
0.04127619
0.03230311
0.07477571
0.05742774
0.021535404
0.012562319
0.011964113
0.049651075
0.05742774
0.03589234
0.046660043
0.016151555
-0.0047856453
0.076570325
0.02751746
0.038285162
0.025722845
0.01674976
0.02213361
0.01794617
0.056829542
-0.009571291
0.07058826
0.06520442
0.06580262
0.071186475
0.02871387
0.039481577
0.062213387
0.00837488
-0.046061836
0.07776674
0.029910281
0.04486543
0.03230311
0.054436717
0.036490545
0.029312078
0.038285162
0.023330022
0.03529413
0.071186475
0.043070808
0.039481577
0.029910281
0.05742774
0.046660043
0.059222363
0.046660043
0.03409772
0.008973085
0.05503492
0.058025952
0.0634098
0.042472597
0.04546363
0.056829542
0.03529413
0.028115667
0.053240303
0.046061836
0.0077766734
0.054436717
0.00837488
0.056231335
0.03589234
0.00418744
0.03589234
0.04127619
0.025722845
0.0317049
0.026919257
0.026321048
0.046660043
0.04546363
0.043669015
0.014356935
0.04486543
0.01674976
0.052642096
0.060418773
0.03469593
0.009571291
-0.009571291
0.04725825
0.0735793
0.046061836
0.039481577
0.05503492
0.036490545
0.023330022
0.029312078
0.0628116
0.02751746
0.012562319
0.060418773
0.058624156
0.040677987
0.071186475
0.03409772
0.040677987
0.04725825
0.07537391
0.014955141
0.0011964113
0.043070808
0.0317049
0.01674976
0.012562319
0.0317049
0.056829542
0.086141616
0.025722845
0.066400826
0.011964113
0.047856454
0.04546363
0.061615184
0.038285162
0.037686955
0.031106694
0.046660043
0.043669015
0.03589234
0.0017946169
0.02751746
-0.0071784677
-0.01674976
0.053838514
0.059222363
0.022731815
0.026321048
0.036490545
0.052642096
0.039481577
0.083748795
-0.0029910284
0.06101698
0.014955141
0.041874398
0.07178468
0.037686955
0.06879365
0.05742774
0.038285162
0.0047856453
0.049651075
0.02213361
0.049052864
0.061615184
0.050847482
0.01375873
0.08853444
0.026919257
0.014356935
0.040079776
0.031106694
0.06520442
-0.022731815
0.03708875
0.00837488
0.03708875
0.0628116
0.040079776
0.06819544
0.02871387
0.03589234
0.04127619
0.017347965
0.02871387
0.025124637
0.05503492
0.023330022
0.023928227
0.040079776
0.036490545
0.020937199
0.052642096
0.0071784677
0.012562319
0.016151555
0.026919257
0.03290131
0.048454657
0.02213361
-0.023928227
0.07058826
0.042472597
0.02213361
0.015553347
0.010169497
0.02871387
0.021535404
0.022731815
0.028115667
0.04546363
0.02871387
0.036490545
0.056829542
-0.00418744
0.021535404
0.06101698
0.08015955
0.037686955
0.04725825
0.060418773
0.06939186
0.048454657
0.06759725
0.06819544
0.03708875
0.028115667
0.049052864
0.039481577
0.03589234
0.038285162
0.024526432
0.026321048
0.017347965
0.03589234
0.07238289
0.07058826
0.066400826
0.00418744
0.020937199
0.05144569
0.023330022
0.061615184
0.02871387
0.03469593
-0.017347965
0.014955141
0.03050849
0.053240303
0.03349952
0.029312078
0.00418744
0.053838514
0.023330022
0.07238289
0.0634098
0.036490545
0.071186475
0.03469593
0.058025952
0.020937199
0.02213361
0.06699904
0.0634098
0.04546363
0.0011964113
0.075972125
0.006580262
0.03230311
0.050249275
0.09332009
0.024526432
0.052043896
0.05742774
0.025124637
0.036490545
0.026919257
0.06819544
0.013160524
0.03230311
-0.0011964113
0.07537391
0.04486543
0.055633124
0.028115667
0.03349952
0.020937199
0.0
0.061615184
0.081355974
0.03050849
0.037686955
0.046660043
0.03230311
0.03529413
0.07178468
0.041874398
0.06699904
0.028115667
0.049651075
0.03050849
0.052043896
0.023928227
0.0035892338
0.03409772
-0.0071784677
0.009571291
0.03529413
-0.0011964113
-0.009571291
0.015553347
-0.016151555
0.021535404
0.00837488
0.046660043
0.06879365
0.018544376
0.05144569
0.043669015
0.05503492
0.049052864
0.03589234
0.054436717
0.023330022
0.04725825
0.023330022
0.023330022
0.028115667
0.061615184
0.01375873
0.059222363
0.01674976
0.023928227
0.02871387
0.046660043
0.00837488
0.054436717
0.010767702
0.039481577
0.058025952
0.03230311
0.010767702
0.01794617
0.050249275
0.029910281
0.042472597
0.0317049
0.0077766734
0.055633124
0.042472597
0.046660043
0.02751746
0.07776674
0.04546363
-0.005383851
0.026321048
0.109471634
0.02213361
0.06460622
0.0077766734
0.050847482
0.042472597
0.053240303
0.01375873
0.011964113
0.0047856453
0.019142581
0.06939186
0.043669015
0.056829542
0.048454657
0.03708875
0.028115667
0.03888337
0.04486543
0.019740788
0.043070808
0.050249275
0.0059820567
0.028115667
0.0029910284
0.06460622
0.13220344
0.22851455
0.34456646
0.39421752
0.3792624
0.4127619
0.5066802
0.506082
0.60717875
0.41096732
0.26021945
0.083748795
-0.46181476
-0.7064809
-0.8991031
-1.250848
-1.3704892
-1.3393824
-1.1240284
-1.0462617
-0.8745767
-0.44985068
-0.36011982
-0.20398813
-0.091525465
0.0
0.12023933
4.2795634
2.1505494
1.3328023
0.20039889
0.17108682
0.07477571
-0.06699904
-0.059820563
-0.084347
-0.13040884
0.13459629
-0.023928227
0.047856454
0.06759725
0.09212367
-0.0317049
0.0047856453
0.106480606
0.17407784
0.19082761
0.30329028
0.2769692
0.41336012
0.378066
0.45164526
0.40618163
0.4319045
0.31226337
0.1256232
0.1058824
0.006580262
-0.24885355
-0.35114673
-0.4019942
-0.37328035
-0.20338993
-0.189033
-0.10408779
-0.19082761
-0.14057833
0.01375873
-0.048454657
-0.042472597
0.07896315
0.16570295
0.28235304
0.28055847
0.442074
0.6729814
0.7250253
0.6490531
0.55932224
0.67776704
1.0570294
1.0085747
1.2735798
1.2592229
1.3549359
1.4003994
1.0504493
0.8691929
0.52582276
-0.40977088
-0.7052845
-0.86979103
-0.24227329
-0.6203393
-0.6191429
-0.71365935
-0.78843504
-0.82073814
-0.86739826
-0.94037926
-1.0289137
-0.9314062
-0.8775677
-0.802792
-0.7597212
-0.67716885
-0.59760743
-0.36490545
-0.3176472
-0.30089745
-0.2536392
-0.2769692
-0.5575277
-0.93200445
-1.0779667
-1.2502497
-1.2562319
-1.3334004
-1.3196416
-1.2664015
-1.3076776
-1.2490535
-1.0049856
-0.8243274
-0.6029913
-0.16271195
0.03230311
0.14177473
0.22492534
0.29072794
0.26500514
0.20398813
0.13938193
0.089132644
0.05742774
-0.03230311
-0.06999007
-0.21655045
-0.31226337
-0.42113677
-0.62392855
-0.6873383
-0.94037926
-1.1096715
-1.4662021
-0.7190432
0.4851448
0.87338024
0.83270234
0.49172506
0.32901308
0.13040884
-0.10049855
-0.060418773
0.049651075
0.076570325
-0.0035892338
-0.15134604
2.6362922
0.26321048
1.908276
1.4470595
0.97986084
0.84406817
0.31286156
0.040079776
0.009571291
0.029312078
0.048454657
0.046660043
0.021535404
0.039481577
0.042472597
0.09272188
0.011365907
-0.043669015
-0.14117652
-0.14057833
-0.22372892
-0.20518453
-0.16331016
-0.21954149
-0.26979074
-0.33020952
0.69272214
0.8877372
0.5198407
0.4785645
-0.03469593
-0.02213361
-0.022731815
0.050847482
0.061615184
0.04486543
0.016151555
0.09930215
-0.03589234
0.116051905
0.014356935
0.037686955
-0.0035892338
-0.0023928226
0.058025952
0.049052864
0.07477571
0.0735793
0.0071784677
0.03409772
0.01674976
0.043669015
0.040677987
0.023928227
0.023330022
0.0029910284
0.0634098
0.03290131
0.022731815
0.04127619
0.046660043
0.0035892338
-0.043669015
0.049651075
0.015553347
0.01794617
0.04426722
0.0071784677
0.058025952
0.013160524
0.06101698
0.0077766734
0.06520442
-0.0059820567
0.01674976
-0.03290131
0.059222363
0.0071784677
0.026321048
0.02751746
0.059222363
0.052043896
0.043669015
0.04486543
0.03589234
0.04426722
0.046061836
0.025124637
0.053240303
0.015553347
-0.015553347
-0.042472597
0.03230311
-0.019740788
0.05503492
0.08315059
0.022731815
0.06101698
0.03349952
0.08015955
0.04486543
0.04127619
0.103489585
0.048454657
0.011964113
0.062213387
0.09092726
0.06939186
0.0047856453
-0.029312078
0.14237295
0.046660043
0.07298109
-0.011964113
0.02871387
0.050847482
0.062213387
0.04546363
0.103489585
0.0047856453
0.024526432
0.0735793
0.0071784677
0.03529413
-0.0011964113
0.013160524
0.03469593
0.0029910284
0.049052864
0.043669015
-0.021535404
0.08255238
0.009571291
-0.006580262
0.043070808
0.052642096
-0.02213361
0.103489585
0.023330022
-0.008973085
0.08015955
0.025722845
0.06879365
0.023928227
0.009571291
0.014356935
0.04486543
-0.00059820566
0.07178468
0.012562319
0.011365907
0.011365907
0.024526432
0.040677987
0.042472597
0.011964113
0.04546363
0.020937199
0.04426722
0.0077766734
0.10468599
0.0317049
0.103489585
0.08673982
0.08973086
0.10229316
0.09272188
0.0735793
0.0945165
-0.06520442
-0.03708875
0.06520442
0.20937198
0.03589234
-0.03409772
0.011365907
0.019740788
-0.019142581
-0.21894327
-0.2769692
-0.34277183
-0.293719
-0.48813584
-0.28175488
-0.41395834
-0.87338024
-0.87338024
-0.82672024
-0.7639086
-0.5066802
-0.5922236
-0.6149554
0.09750752
0.2656033
0.2865405
0.42831525
0.5395815
0.25184458
-0.14297116
-0.061615184
-0.13040884
-0.11066805
0.084945194
0.26979074
0.1902294
0.08315059
0.096909314
-0.24227329
-0.40079778
-0.09571291
0.025722845
0.6508478
0.7800602
0.19381863
0.10468599
0.48215377
0.43369913
0.4342973
0.43848476
0.36370903
0.46002015
0.81415796
0.5192425
0.60358953
0.59282184
0.32961133
0.15972091
-0.0029910284
0.050847482
0.049651075
0.08015955
0.0634098
0.03708875
0.021535404
0.06460622
-0.025722845
0.050847482
0.050249275
0.026321048
0.11784652
0.02871387
0.058624156
0.01674976
0.020937199
0.03290131
0.04546363
-0.01794617
0.03230311
0.05742774
0.0029910284
0.0741775
0.050249275
0.06101698
-0.0023928226
0.043070808
0.015553347
0.064008005
0.07956135
0.038285162
0.02213361
-0.02751746
0.06759725
0.0628116
0.03529413
0.050847482
0.03469593
0.040677987
0.04486543
0.06101698
0.07896315
0.076570325
0.059222363
0.08255238
0.04546363
0.04426722
0.029910281
0.07298109
0.00059820566
0.06759725
0.047856454
0.0741775
0.017347965
0.06699904
0.046061836
0.058624156
0.0317049
0.0011964113
0.10468599
0.018544376
0.049052864
0.016151555
0.04725825
0.00837488
0.021535404
0.0628116
0.02213361
0.03050849
0.036490545
0.083748795
0.053838514
0.039481577
0.049052864
0.046061836
0.050249275
0.03349952
0.08255238
0.08315059
0.0077766734
0.049052864
0.046660043
0.059820563
0.006580262
0.04546363
0.06819544
0.059222363
0.049052864
0.005383851
0.0951147
0.049651075
0.03349952
0.06939186
0.06999007
0.056829542
0.01375873
0.06999007
-0.0017946169
0.066400826
0.03589234
0.021535404
0.08315059
0.06101698
0.05144569
0.039481577
0.03050849
0.056829542
0.036490545
0.03469593
0.053838514
0.03888337
0.046061836
0.03349952
0.043669015
0.0634098
0.053838514
0.046061836
0.050249275
0.089132644
0.028115667
0.029910281
0.038285162
0.026919257
0.10289138
0.04127619
0.03290131
0.041874398
0.02213361
0.04426722
0.036490545
0.03708875
0.06759725
0.06999007
0.040677987
0.048454657
0.042472597
0.04127619
0.026321048
0.046660043
0.019142581
0.0634098
0.037686955
0.06580262
0.053838514
0.020937199
0.012562319
0.09032906
0.08793623
0.052642096
0.028115667
0.015553347
0.0634098
0.046660043
0.013160524
0.060418773
0.08195418
0.010767702
0.019740788
0.024526432
0.03708875
0.025722845
0.096311115
0.038285162
-0.006580262
0.13938193
-0.12263216
0.06999007
-0.0017946169
0.012562319
0.054436717
0.050249275
0.096311115
0.059820563
-0.0029910284
0.014955141
0.023928227
0.049052864
0.039481577
0.0071784677
0.06580262
0.02751746
0.03349952
0.0029910284
0.061615184
0.026919257
0.061615184
0.06759725
0.03469593
-0.0011964113
0.017347965
0.10707881
0.0071784677
0.037686955
0.026321048
0.03290131
-0.03708875
0.12861422
-0.060418773
0.041874398
0.011365907
0.08015955
-0.017347965
-0.005383851
0.028115667
0.08015955
0.07716853
0.09810573
0.2111666
0.29790643
0.3062813
0.21296121
0.22671995
0.22911277
0.1591227
0.10049855
0.03589234
0.0628116
0.0029910284
-0.010169497
-0.054436717
-0.148355
-0.15433706
-0.18245272
-0.1896312
-0.28175488
-0.26201406
-0.31226337
-0.2865405
-0.30448666
-0.34037903
-0.2961118
-0.3164508
-0.32243288
-0.35413775
-0.3062813
-0.3038885
-0.21415763
-0.2416751
-0.14895321
0.26919258
2.3611176
0.7082755
0.49112687
0.43669012
0.26859432
0.35832518
0.34456646
0.16271195
0.16929221
-0.10229316
-0.03708875
-0.06699904
-0.08195418
-0.0317049
-0.02213361
-0.14596218
0.0023928226
-0.01674976
-0.0317049
-0.04426722
-0.016151555
0.020937199
0.06460622
0.01375873
0.03529413
0.040677987
0.02213361
0.06819544
0.025124637
0.017347965
0.05144569
0.064008005
0.020937199
0.04725825
0.053838514
0.025722845
0.038285162
0.03230311
0.019142581
0.06580262
0.029910281
0.084347
0.066400826
0.13998014
0.12861422
0.114257276
0.091525465
0.13160524
0.15134604
0.09272188
-0.16271195
-0.1986043
-0.13938193
-0.124426775
0.06879365
0.10528419
-0.019142581
0.023928227
0.0628116
0.066400826
0.053838514
0.0634098
0.025124637
0.04127619
-0.0071784677
0.01794617
0.011964113
0.0029910284
0.029312078
-0.049052864
0.009571291
-0.016151555
0.03888337
0.08973086
0.18364912
0.168694
0.048454657
-0.019142581
0.050249275
0.10109676
0.08733803
0.05144569
0.08853444
0.047856454
0.03230311
0.03349952
0.056231335
0.016151555
0.043070808
0.06699904
0.0741775
0.0741775
0.058025952
0.0317049
0.019142581
0.04725825
0.05503492
0.084945194
0.049052864
0.026321048
0.07537391
0.08015955
-0.017347965
0.008973085
0.056231335
0.017347965
0.03050849
0.08793623
0.00059820566
0.04426722
0.06999007
0.028115667
0.058025952
0.037686955
0.052642096
0.00837488
0.008973085
0.00059820566
0.016151555
0.022731815
0.02871387
0.038285162
0.013160524
0.03230311
0.056829542
0.03529413
0.0634098
0.026321048
0.04725825
0.040677987
0.037686955
0.029910281
0.040677987
0.03230311
0.0628116
0.056231335
0.03529413
0.023330022
0.060418773
0.06101698
0.04546363
0.048454657
0.046061836
0.043070808
0.013160524
0.02871387
0.014955141
-0.015553347
0.059820563
0.050249275
0.06939186
0.03230311
0.03589234
0.039481577
0.028115667
0.04725825
0.043669015
0.04127619
0.01794617
0.014356935
0.07178468
0.061615184
0.039481577
0.010767702
-0.010169497
0.038285162
0.03230311
0.03050849
0.03230311
0.021535404
0.047856454
0.0011964113
0.026321048
0.050847482
0.02213361
0.040677987
0.03529413
0.016151555
0.025124637
0.042472597
0.013160524
-0.010767702
0.023928227
0.017347965
0.059820563
0.026321048
0.0023928226
0.042472597
0.0628116
0.015553347
-0.025124637
0.029312078
0.0317049
0.010767702
0.0634098
0.03589234
0.040079776
0.059222363
0.06939186
0.056231335
0.01674976
0.049052864
0.024526432
0.049052864
0.031106694
0.040079776
0.00837488
0.041874398
0.055633124
0.06879365
0.024526432
0.00418744
0.040677987
0.025722845
0.08673982
0.04725825
0.058025952
0.0317049
0.06999007
0.014955141
0.060418773
0.05742774
0.046660043
0.04127619
0.03529413
0.010169497
0.06460622
0.050847482
0.056829542
0.023928227
0.029312078
0.054436717
0.0029910284
0.04127619
0.04486543
0.03888337
0.056829542
0.049052864
0.086141616
0.06939186
0.03708875
0.025722845
0.054436717
0.046061836
0.049052864
0.066400826
0.041874398
0.042472597
0.02871387
0.058624156
0.042472597
0.03230311
0.050847482
0.076570325
0.047856454
0.071186475
0.06819544
0.019142581
0.0735793
0.059820563
0.026919257
0.052043896
0.043070808
0.02871387
0.04426722
0.009571291
0.02751746
0.042472597
0.03589234
0.050249275
0.0011964113
0.083748795
0.04486543
0.01375873
0.029910281
0.031106694
0.039481577
0.083748795
0.052043896
0.04127619
0.042472597
0.026919257
0.04725825
0.00837488
0.040079776
0.024526432
0.05742774
0.04725825
0.043669015
0.040079776
0.05742774
0.019740788
0.0317049
0.017347965
0.00837488
0.043669015
0.04725825
0.046660043
0.03589234
-0.0047856453
0.021535404
0.06101698
0.059222363
0.040079776
-0.0071784677
0.09930215
0.03469593
0.015553347
0.03888337
0.025124637
0.09930215
0.0047856453
0.05503492
0.083748795
0.042472597
0.031106694
0.03050849
0.04546363
0.020338994
0.010169497
0.025124637
0.010169497
0.019142581
0.04426722
0.02871387
0.020338994
0.011964113
0.040079776
0.052642096
0.00837488
0.026919257
0.0628116
0.01674976
0.03469593
0.043070808
-0.040079776
0.046660043
-0.010169497
0.024526432
0.049052864
0.038285162
0.052043896
0.07238289
0.03230311
0.06101698
0.0628116
0.048454657
0.01794617
0.0735793
0.019142581
0.03349952
0.050249275
0.075972125
0.05144569
0.03589234
0.00837488
0.03529413
0.03708875
0.066400826
0.015553347
0.058624156
0.053240303
0.0735793
0.011964113
0.05144569
0.04546363
0.041874398
0.07477571
0.039481577
0.054436717
0.059820563
0.061615184
0.031106694
0.02213361
0.0011964113
0.025124637
0.04725825
0.06520442
0.036490545
0.053838514
0.06101698
0.055633124
0.036490545
0.018544376
0.04127619
0.03589234
0.029910281
0.021535404
0.01375873
0.04486543
0.059820563
-0.00837488
0.03529413
0.00059820566
0.053838514
0.039481577
0.06939186
0.01794617
0.036490545
0.0017946169
-0.0077766734
0.04546363
0.019142581
-0.0035892338
0.018544376
0.06999007
0.05742774
0.043669015
0.0029910284
0.015553347
0.04546363
0.011365907
0.047856454
0.053838514
0.08853444
0.009571291
0.052642096
0.09391828
0.07238289
0.019740788
0.040079776
0.03469593
0.017347965
0.020338994
0.03589234
0.012562319
0.060418773
0.07298109
0.03349952
0.058624156
0.046660043
0.03290131
0.024526432
0.04127619
0.0047856453
-0.010767702
0.013160524
0.03469593
0.052043896
0.03349952
0.026321048
0.01794617
0.03589234
0.058624156
0.06101698
0.06460622
0.07058826
0.029312078
0.0023928226
0.046660043
0.052642096
0.056829542
0.056231335
0.012562319
0.014356935
0.013160524
0.0634098
0.048454657
0.055633124
0.025722845
0.056231335
0.06460622
0.08733803
0.019740788
0.10049855
0.07477571
0.07238289
0.0735793
0.013160524
0.059222363
0.03050849
0.038285162
0.04426722
0.00837488
0.05144569
0.09092726
0.04546363
0.024526432
0.03708875
0.029910281
0.05503492
0.013160524
0.040079776
0.062213387
0.081355974
0.031106694
0.006580262
-0.0029910284
-0.014955141
0.01674976
-0.008973085
0.053240303
0.07776674
0.017347965
0.03469593
-0.0059820567
0.04426722
0.03349952
0.02751746
0.050249275
0.05503492
0.031106694
0.031106694
0.06759725
0.052043896
0.08255238
0.015553347
0.020338994
0.026919257
0.041874398
0.029910281
0.016151555
0.0035892338
0.03230311
0.021535404
0.052043896
0.01375873
0.026321048
0.0029910284
0.01375873
0.064008005
0.02213361
0.053240303
0.02871387
0.019142581
0.019740788
0.07238289
0.05503492
0.0317049
0.020937199
0.071186475
-0.010767702
0.0029910284
0.02751746
0.05742774
0.0735793
0.060418773
0.0011964113
0.053838514
0.041874398
0.05742774
0.038285162
-0.0035892338
-0.01674976
0.09032906
0.09272188
0.07178468
0.043669015
0.040677987
0.054436717
0.055633124
0.025722845
0.053838514
0.016151555
0.017347965
0.040079776
0.031106694
0.0077766734
0.026321048
0.071186475
-0.03050849
0.028115667
0.03708875
0.025722845
0.07238289
0.010767702
0.046660043
0.054436717
0.041874398
0.04127619
0.056231335
0.04426722
0.012562319
0.019142581
0.04426722
0.046061836
0.040677987
0.040079776
0.03290131
0.078364946
0.04426722
0.008973085
0.066400826
0.103489585
0.015553347
0.006580262
0.060418773
0.048454657
0.011964113
0.03409772
0.023330022
0.058624156
0.022731815
0.02871387
0.03529413
0.050847482
0.058025952
0.053240303
0.06939186
0.0634098
0.07298109
0.03349952
0.03409772
0.07298109
0.017347965
0.014955141
0.08673982
0.06879365
0.075972125
0.046660043
0.043070808
0.01794617
0.043070808
0.02871387
0.050847482
0.03230311
0.05742774
0.08015955
0.023330022
0.02871387
0.013160524
0.0735793
0.0317049
0.0
0.036490545
0.056231335
0.02871387
0.06939186
0.047856454
0.03469593
0.025124637
0.09212367
0.066400826
0.019740788
0.01794617
0.009571291
0.022731815
0.020338994
0.015553347
0.06939186
0.03888337
0.028115667
0.014356935
0.056231335
0.056829542
-0.00837488
0.011964113
0.058025952
0.03290131
0.019740788
0.058624156
0.043669015
0.043070808
0.029312078
0.0011964113
0.042472597
0.09092726
0.03230311
0.07716853
0.05503492
0.031106694
0.014955141
0.031106694
0.040677987
0.03708875
0.0317049
0.08853444
0.07716853
0.06819544
0.056829542
0.011365907
0.028115667
0.043669015
0.010169497
0.010169497
0.03230311
0.018544376
0.055633124
0.014356935
0.0317049
0.0634098
0.011365907
0.005383851
0.020937199
0.026321048
0.021535404
0.008973085
0.011964113
0.011964113
0.03708875
0.059222363
0.06101698
0.03888337
0.058025952
0.07298109
0.08015955
0.04725825
0.04486543
0.02871387
0.055633124
0.019142581
0.058025952
-0.0011964113
0.010767702
0.0
0.03888337
0.025722845
0.01674976
0.014955141
0.03529413
0.046660043
0.053838514
0.013160524
0.052043896
0.036490545
0.020338994
0.03409772
0.047856454
0.064008005
0.011964113
0.019142581
-0.0071784677
0.031106694
0.05144569
0.013160524
0.04725825
0.048454657
0.040677987
0.055633124
0.03349952
0.054436717
0.037686955
0.04725825
0.050249275
0.08255238
0.042472597
0.058025952
0.023928227
0.015553347
0.04486543
0.04127619
0.06999007
0.029312078
0.022731815
0.02213361
0.056829542
0.07178468
0.017347965
0.056231335
0.038285162
0.0628116
0.11066805
0.08015955
0.05144569
0.026919257
0.062213387
0.0029910284
0.05503492
0.08015955
0.058624156
0.022731815
0.050847482
0.03529413
0.019142581
0.05503492
0.023928227
0.060418773
0.010169497
0.009571291
0.037686955
0.06879365
0.016151555
0.010767702
0.010767702
0.029312078
0.062213387
0.071186475
-0.00059820566
0.01375873
0.0077766734
-0.0011964113
0.010169497
0.0029910284
0.008973085
0.022731815
0.07298109
0.05144569
0.0735793
0.03469593
0.022731815
0.0634098
0.03708875
0.04725825
0.009571291
0.043070808
0.059222363
0.013160524
0.03050849
0.031106694
0.03230311
0.025124637
0.019142581
0.06819544
0.039481577
0.03529413
-0.00059820566
0.059222363
0.03050849
0.056231335
0.052642096
0.048454657
0.012562319
0.05742774
0.038285162
0.048454657
0.0628116
0.048454657
0.03708875
0.025722845
0.020937199
0.056231335
0.029910281
0.061615184
0.043669015
0.07298109
0.054436717
0.019740788
0.061615184
0.064008005
0.07716853
0.011964113
0.012562319
0.029910281
0.054436717
0.061615184
0.015553347
0.043070808
0.049052864
0.02751746
0.07178468
0.026919257
0.03349952
-0.0017946169
0.029312078
0.056829542
0.043669015
0.03529413
0.040079776
0.084945194
0.025124637
0.060418773
0.06460622
0.010169497
0.049052864
0.026919257
-0.023928227
0.037686955
0.05503492
0.059222363
0.049052864
0.07298109
0.055633124
0.039481577
0.026321048
0.00418744
0.028115667
0.01674976
0.046061836
0.01794617
0.009571291
0.011365907
-0.0047856453
0.06699904
0.019740788
0.043070808
0.0017946169
0.059222363
0.053240303
0.03409772
0.0634098
0.037686955
0.0317049
0.053838514
0.03050849
-0.016151555
0.0011964113
0.019740788
0.029312078
0.012562319
-0.0011964113
0.03290131
0.025124637
0.040677987
0.06819544
0.014356935
-0.010767702
0.066400826
0.08315059
0.03708875
-0.011365907
0.06580262
0.03469593
0.059820563
0.07058826
0.046061836
0.043669015
0.00837488
-0.01794617
0.0317049
0.0628116
0.04127619
0.010767702
0.026321048
0.066400826
0.09750752
0.040677987
0.023928227
0.07298109
0.06819544
0.08315059
0.066400826
0.058025952
0.050847482
0.043070808
0.052642096
0.091525465
0.04426722
0.1058824
0.006580262
0.01375873
0.009571291
0.016151555
0.060418773
0.038285162
0.02871387
0.029312078
0.010169497
0.036490545
0.02751746
0.046660043
0.02871387
0.084945194
0.060418773
0.041874398
0.050847482
0.083748795
0.06520442
0.08673982
0.059222363
0.031106694
0.03888337
0.0317049
0.049052864
0.029910281
0.041874398
0.0317049
0.025722845
0.038285162
0.05503492
0.011365907
0.01674976
0.0059820567
0.0047856453
0.037686955
0.05742774
0.06101698
0.058025952
0.0735793
0.050847482
0.05742774
0.029910281
0.02213361
0.0634098
0.08255238
0.10408779
0.03589234
0.036490545
0.049052864
0.09332009
0.08733803
0.03050849
0.047856454
0.014955141
-0.0035892338
0.05503492
0.026919257
0.049052864
0.024526432
0.04127619
0.05144569
0.03230311
0.059222363
0.025124637
0.054436717
0.0
0.03888337
0.040677987
0.04426722
0.058624156
0.061615184
-0.006580262
0.02871387
0.042472597
0.01794617
0.0077766734
0.06699904
0.029312078
0.03888337
0.01674976
0.06759725
0.03888337
0.018544376
0.037686955
0.025722845
0.060418773
0.064008005
0.02751746
0.08733803
0.026919257
0.02751746
0.0317049
0.03290131
0.037686955
0.0029910284
0.018544376
0.020338994
0.025722845
0.06879365
0.024526432
0.052043896
0.07238289
0.04486543
0.043669015
0.03529413
0.03529413
0.050847482
0.029910281
0.021535404
-0.0035892338
0.041874398
0.020338994
0.07298109
0.019740788
0.00837488
0.009571291
0.07776674
0.04486543
0.06580262
0.0628116
0.05503492
0.03589234
0.07956135
0.029312078
0.03230311
0.03409772
0.036490545
0.025124637
0.052043896
0.029910281
0.019142581
0.06819544
0.058624156
0.078364946
0.028115667
0.050847482
0.052043896
0.06699904
-0.01674976
0.00418744
0.050847482
0.03708875
0.06999007
0.014356935
0.06101698
0.01375873
0.060418773
0.0317049
-0.011964113
0.05742774
0.038285162
0.054436717
0.0317049
0.026321048
0.026321048
0.03050849
0.043070808
0.0
0.050249275
0.025124637
0.019142581
0.064008005
0.011365907
0.03469593
0.038285162
-0.01674976
0.04725825
0.03529413
0.054436717
0.061615184
-0.00059820566
0.06460622
0.054436717
0.08015955
0.0
0.03050849
0.038285162
0.00837488
0.0059820567
0.026919257
0.020937199
0.075972125
0.00418744
0.050249275
0.066400826
0.053838514
0.022731815
0.03349952
0.016151555
0.08554341
0.0951147
0.06101698
0.012562319
0.060418773
0.038285162
0.029910281
0.05503492
0.028115667
0.06101698
0.03708875
0.040677987
0.025124637
-0.0029910284
0.011365907
0.037686955
0.0077766734
0.010767702
0.038285162
0.02213361
0.04127619
0.039481577
0.06879365
0.0
0.036490545
0.03469593
0.0
0.005383851
0.061615184
0.06819544
0.064008005
0.037686955
-0.0071784677
0.053240303
0.048454657
0.018544376
0.0035892338
0.08853444
0.01375873
0.043669015
0.039481577
0.037686955
0.06699904
0.06520442
0.04546363
0.015553347
-0.029312078
0.024526432
0.0035892338
0.07298109
0.010169497
0.046660043
0.043669015
0.048454657
0.009571291
0.07776674
0.040677987
0.040677987
0.07058826
0.038285162
0.061615184
0.03290131
0.07298109
0.04426722
0.061615184
0.09032906
0.01375873
0.016151555
0.052642096
0.096909314
0.023928227
0.0317049
0.07776674
0.043070808
0.041874398
0.039481577
0.056829542
0.01674976
0.020338994
0.017347965
0.022731815
0.059820563
0.04725825
0.06520442
0.04127619
0.043669015
-0.024526432
0.0
0.055633124
0.06999007
0.03230311
0.020338994
0.06759725
0.03888337
0.04486543
0.050249275
0.03050849
0.019740788
-0.023928227
0.02213361
0.010169497
0.04426722
0.03888337
0.04725825
0.03409772
0.0071784677
0.023330022
0.022731815
0.059820563
0.017347965
0.04725825
0.043669015
0.03529413
0.042472597
0.075972125
0.037686955
0.050249275
0.06460622
0.03529413
0.00059820566
0.023330022
0.04426722
0.06879365
0.043669015
0.031106694
0.026321048
0.076570325
0.02213361
0.04725825
0.04546363
0.020937199
0.021535404
0.0011964113
0.036490545
0.052043896
0.016151555
0.029312078
0.0047856453
0.020338994
0.023928227
0.046061836
0.03290131
0.028115667
0.021535404
0.040677987
0.047856454
0.010169497
0.096311115
0.07776674
0.039481577
0.07537391
0.07776674
0.039481577
0.081355974
-0.011964113
0.020338994
-0.0077766734
0.047856454
0.07776674
0.046061836
0.023928227
0.020937199
0.05742774
-0.053838514
0.06101698
0.056231335
0.089132644
0.05742774
0.017347965
0.006580262
0.012562319
0.052043896
0.03050849
0.053240303
0.020338994
0.008973085
0.040079776
0.046061836
0.02213361
0.07238289
0.04426722
0.020338994
-0.00059820566
0.04486543
0.022731815
-0.00418744
0.019142581
0.020937199
0.04725825
0.056829542
0.019142581
0.013160524
0.028115667
0.0735793
0.053240303
0.06819544
0.05503492
-0.0035892338
0.071186475
0.07178468
0.07238289
0.037686955
0.039481577
0.089132644
0.029910281
0.039481577
0.040677987
0.03469593
0.049052864
0.041874398
0.07178468
0.056231335
0.03230311
0.06460622
0.031106694
0.053240303
0.05144569
0.08195418
0.060418773
0.02751746
0.06999007
0.084945194
0.07058826
0.023330022
0.019142581
0.02751746
0.025722845
0.03708875
0.04426722
0.02751746
0.0023928226
0.0317049
0.0741775
0.049651075
0.012562319
0.0023928226
0.049052864
0.036490545
0.083748795
0.053838514
0.062213387
0.04127619
0.056829542
0.049052864
0.017347965
0.018544376
0.0317049
0.04546363
0.029910281
0.041874398
0.03888337
0.017347965
0.04127619
0.03230311
0.049052864
0.053240303
0.040079776
-0.008973085
0.024526432
0.049052864
0.011964113
0.050249275
-0.009571291
0.008973085
0.031106694
0.037686955
0.031106694
0.046660043
0.015553347
0.037686955
0.06580262
0.05742774
0.01375873
0.026919257
0.014356935
0.03708875
0.042472597
0.062213387
0.076570325
0.046061836
0.09212367
0.06759725
0.03290131
0.0011964113
0.042472597
0.042472597
0.00059820566
0.0077766734
0.03888337
0.075972125
0.03529413
0.029312078
0.046061836
0.04127619
0.03469593
0.04725825
0.017347965
0.014356935
0.084945194
0.06819544
0.02751746
0.020937199
0.04546363
0.028115667
0.060418773
-0.0077766734
-0.005383851
0.02213361
0.0011964113
0.016151555
0.071186475
0.06101698
0.0628116
0.00418744
0.03349952
0.011964113
0.02213361
0.008973085
0.036490545
0.02871387
0.048454657
0.047856454
0.03050849
0.05503492
0.041874398
0.020937199
-0.012562319
0.04127619
0.014955141
0.06699904
0.060418773
0.062213387
0.03529413
0.03230311
0.04127619
0.02751746
0.029312078
0.055633124
0.01674976
0.01794617
0.011964113
0.053838514
0.042472597
0.037686955
0.02213361
0.014955141
0.029910281
0.029312078
0.03230311
0.03589234
0.0628116
0.059222363
0.09391828
0.07178468
0.03349952
0.026321048
0.0071784677
0.01375873
0.058025952
0.023330022
0.07537391
0.026321048
-0.005383851
0.050249275
0.0317049
0.020937199
0.0628116
0.059820563
0.025124637
0.04426722
0.056231335
0.050847482
0.054436717
0.043070808
0.0741775
0.046660043
0.046660043
0.04426722
0.01794617
0.075972125
0.024526432
0.0945165
0.011365907
0.0071784677
0.053240303
0.043669015
0.08673982
0.038285162
0.04546363
0.07178468
0.026919257
0.053838514
0.040677987
0.0317049
0.022731815
0.064008005
0.037686955
0.039481577
0.04486543
0.016151555
0.02751746
0.084945194
0.036490545
0.056829542
0.038285162
0.066400826
0.048454657
0.061615184
0.019740788
0.05144569
0.056231335
0.012562319
-0.0017946169
-0.0071784677
0.014955141
0.017347965
0.07178468
0.04725825
0.023330022
0.040079776
0.03230311
0.050249275
0.049052864
0.041874398
0.062213387
0.00059820566
0.048454657
0.03230311
0.061615184
0.03230311
0.026321048
0.02871387
0.022731815
0.0077766734
-0.00059820566
0.083748795
0.075972125
0.020937199
0.059222363
0.02751746
0.05503492
0.040677987
0.06101698
0.03708875
0.042472597
0.052043896
0.008973085
0.039481577
0.01794617
0.06759725
0.009571291
0.017347965
0.00837488
0.025722845
0.03409772
0.04127619
0.0628116
0.0059820567
0.10408779
0.056231335
-0.011964113
0.06759725
0.046660043
0.043669015
0.041874398
0.013160524
0.026919257
0.03529413
0.04546363
0.049651075
0.010169497
0.050249275
0.03230311
0.0317049
0.06460622
0.089132644
0.046061836
0.052043896
0.0
0.050249275
0.014955141
0.01794617
0.06699904
0.07298109
0.036490545
0.04426722
0.021535404
0.061615184
0.0634098
0.056231335
0.03708875
0.016151555
0.0735793
0.09272188
0.08853444
0.025722845
0.039481577
0.0071784677
0.039481577
0.05144569
0.04127619
0.03409772
0.00418744
0.07298109
0.043669015
0.050847482
0.01794617
0.026321048
0.03589234
0.03888337
0.04546363
0.052642096
0.022731815
0.059222363
0.03409772
0.026321048
0.050847482
0.056829542
0.053838514
0.022731815
0.06699904
0.046061836
0.040079776
0.06759725
0.06819544
0.023330022
0.02871387
0.06580262
0.046660043
0.0634098
0.040677987
0.061615184
0.014955141
0.02213361
0.0023928226
0.019740788
0.046061836
0.03888337
0.048454657
0.053240303
0.046660043
0.040677987
0.00837488
0.03409772
0.054436717
0.0741775
0.049651075
0.046660043
0.03888337
0.039481577
0.036490545
0.05503492
0.019740788
0.049052864
0.029910281
0.06879365
0.011365907
0.0071784677
0.03708875
0.049052864
0.062213387
0.021535404
0.04486543
0.071186475
0.046660043
0.017347965
0.03290131
0.07178468
0.020338994
0.008973085
0.062213387
0.019740788
0.02213361
0.03589234
0.049052864
0.03529413
0.050249275
0.05742774
0.04486543
0.006580262
0.011365907
0.03529413
0.046660043
0.03050849
0.02213361
0.023928227
0.02751746
0.03888337
0.009571291
0.02871387
0.03230311
0.043669015
0.03708875
0.03589234
0.029910281
-0.010767702
0.014955141
0.00059820566
0.0011964113
0.04546363
0.04725825
0.06699904
0.049052864
0.041874398
0.020338994
-0.0023928226
0.049052864
0.049052864
0.050249275
0.03290131
0.01674976
0.06999007
0.05144569
0.0059820567
0.015553347
0.054436717
0.046660043
0.026321048
-0.00059820566
0.017347965
0.084347
0.06939186
0.017347965
0.006580262
0.021535404
0.017347965
0.056829542
0.03290131
0.011365907
0.037686955
0.018544376
0.043669015
0.066400826
0.03469593
0.053240303
0.064008005
0.03230311
0.056231335
0.03409772
0.07716853
0.062213387
0.062213387
0.062213387
0.1058824
0.043070808
0.03230311
0.03290131
0.03409772
0.042472597
0.07716853
0.019740788
0.0735793
0.04426722
0.01794617
0.043669015
-0.008973085
0.08195418
0.076570325
0.056829542
0.052043896
0.03349952
0.07238289
0.05503492
0.0317049
0.009571291
0.0029910284
0.011964113
0.019142581
0.029312078
0.04486543
0.042472597
0.019740788
0.014955141
0.05503492
0.07477571
0.055633124
0.019740788
0.052043896
0.01674976
0.04127619
0.03230311
-0.0035892338
0.03050849
0.01375873
0.03888337
0.02213361
0.019142581
0.04546363
0.014356935
0.016151555
0.0035892338
0.0628116
0.043669015
-0.0029910284
-0.04725825
0.03230311
0.05144569
0.021535404
0.018544376
0.04725825
0.049052864
0.07298109
0.052642096
0.053838514
0.053838514
0.046061836
-0.0035892338
0.026919257
0.029312078
0.0077766734
0.024526432
0.078364946
0.053240303
0.0071784677
0.06879365
0.04546363
0.07298109
0.048454657
0.03708875
0.023330022
0.01674976
0.0017946169
0.0047856453
0.04725825
0.036490545
0.049052864
0.055633124
0.037686955
-0.014955141
0.03349952
0.021535404
0.06101698
0.056829542
0.059222363
0.04486543
0.014356935
0.03409772
0.024526432
0.03529413
0.046660043
0.012562319
0.005383851
0.048454657
0.018544376
0.10109676
0.050249275
0.0634098
0.06101698
0.04426722
0.06879365
0.06101698
0.08075776
0.052642096
0.03589234
0.058025952
0.024526432
0.066400826
0.03469593
0.07537391
0.0
0.036490545
0.026919257
0.01375873
0.0023928226
0.03469593
0.04546363
0.019142581
0.0047856453
0.07537391
0.056829542
0.07896315
0.01375873
-0.03349952
-0.015553347
0.041874398
0.029910281
0.02871387
0.050847482
0.04725825
0.019142581
0.07178468
0.050847482
0.0017946169
0.03050849
0.07776674
0.04426722
0.056231335
0.056829542
0.078364946
0.075972125
0.029910281
-0.0071784677
-0.006580262
0.043070808
0.059820563
0.0077766734
0.0317049
0.046660043
0.050847482
0.019142581
0.06879365
0.061615184
0.023928227
0.047856454
0.040079776
0.04486543
0.03290131
0.0071784677
0.043070808
0.043070808
0.029312078
0.021535404
0.01794617
0.03589234
0.059222363
0.03409772
0.064008005
0.03589234
0.059222363
0.084347
0.01674976
0.040079776
0.052043896
0.03708875
0.03529413
0.028115667
0.029312078
0.043669015
0.024526432
0.058624156
0.061615184
0.016151555
0.078364946
0.017347965
-0.010169497
0.010169497
0.03589234
0.026321048
-0.00059820566
0.02871387
0.04486543
0.06580262
0.0317049
0.016151555
0.060418773
-0.009571291
0.03290131
0.046061836
0.07298109
-0.005383851
0.010767702
0.03888337
0.04127619
0.029910281
0.036490545
0.03469593
0.03050849
0.04546363
0.026919257
0.022731815
0.08075776
0.036490545
0.0628116
0.059222363
0.0317049
0.023330022
0.026919257
0.046061836
0.03290131
0.017347965
0.038285162
0.052043896
0.03888337
0.06699904
0.03230311
0.041874398
0.02871387
0.05742774
0.050249275
0.09930215
0.05503492
0.053240303
0.066400826
0.024526432
0.049651075
0.050249275
0.031106694
0.02751746
0.037686955
0.040079776
0.0023928226
0.029312078
0.049052864
0.078364946
0.07716853
0.053240303
0.056829542
0.07238289
0.046660043
0.03708875
0.062213387
0.053240303
0.055633124
0.01794617
0.040079776
0.054436717
0.04426722
0.07956135
0.020937199
0.01674976
0.042472597
0.0035892338
0.053240303
0.055633124
0.07058826
0.022731815
0.0047856453
0.07058826
0.023928227
0.020937199
0.026919257
0.04486543
0.050249275
0.056829542
0.011964113
0.041874398
0.052043896
0.03050849
0.046660043
0.029312078
0.042472597
0.029312078
0.03349952
0.05742774
0.024526432
0.056231335
0.050249275
0.08793623
0.03050849
0.053838514
0.028115667
0.10229316
0.03589234
0.058025952
0.03050849
0.09332009
0.046660043
0.055633124
0.04546363
0.026321048
0.03409772
0.0317049
0.048454657
0.029312078
0.050249275
0.036490545
0.018544376
0.029910281
0.020338994
0.00837488
0.03888337
0.066400826
0.023330022
0.053838514
0.04546363
0.048454657
0.041874398
0.0735793
0.06460622
0.081355974
0.06939186
0.055633124
0.060418773
0.043669015
-0.0077766734
0.038285162
0.08793623
0.040677987
0.0317049
0.019142581
0.02751746
0.041874398
0.06939186
0.039481577
0.064008005
0.02751746
0.019740788
0.019142581
0.03290131
0.059222363
0.06101698
0.09032906
0.061615184
-0.025124637
0.041874398
0.02871387
0.04725825
0.076570325
0.025722845
0.039481577
0.017347965
0.08853444
0.009571291
0.03349952
0.07178468
0.03529413
0.04725825
0.052043896
0.050847482
0.055633124
0.04127619
0.071186475
0.017347965
0.05144569
0.0071784677
0.011964113
0.038285162
0.011964113
0.04546363
0.07716853
0.064008005
0.058624156
0.03230311
0.07058826
0.049651075
0.06819544
0.049052864
0.043669015
0.03708875
0.064008005
0.03349952
0.014955141
0.02751746
0.064008005
0.07298109
0.049052864
0.11186446
0.042472597
-0.0059820567
0.039481577
0.02751746
0.0317049
0.06520442
0.05144569
0.012562319
-0.021535404
0.023928227
0.006580262
0.040079776
0.060418773
0.031106694
0.021535404
0.019142581
0.058624156
0.01674976
0.025722845
0.026321048
0.026321048
-0.0047856453
0.019142581
0.025124637
0.025124637
0.07178468
0.023330022
-0.0035892338
0.053838514
0.03708875
0.026321048
0.07178468
0.040079776
0.01794617
0.078364946
-0.012562319
0.0317049
0.025722845
0.026919257
0.022731815
0.0077766734
0.059222363
0.03469593
-0.0047856453
0.03589234
0.026919257
0.056231335
0.029910281
0.049651075
0.062213387
0.07238289
-0.00059820566
0.036490545
0.04546363
0.048454657
0.038285162
0.064008005
0.08673982
0.049651075
0.064008005
0.050249275
0.041874398
0.10229316
0.038285162
0.03050849
0.046660043
0.04127619
0.06101698
0.05742774
0.038285162
0.039481577
0.03708875
0.0017946169
0.059222363
0.03409772
0.018544376
0.03349952
0.03290131
0.049651075
0.043669015
0.03230311
0.08075776
0.053838514
0.0029910284
0.01794617
0.025124637
0.054436717
0.09990034
0.08315059
0.05144569
-0.012562319
0.022731815
0.03529413
0.042472597
0.052043896
0.023330022
0.03469593
0.03469593
0.016151555
0.056829542
0.03529413
0.01794617
0.050847482
0.053240303
0.05144569
0.050847482
0.046061836
0.03349952
0.020338994
0.022731815
0.046061836
0.04127619
0.022731815
0.0
0.086141616
0.07956135
0.064008005
0.00059820566
0.019740788
0.01794617
0.071186475
0.020338994
0.010169497
0.02871387
0.046660043
0.028115667
0.04426722
0.07058826
0.020937199
0.021535404
0.00837488
0.052642096
0.056829542
0.056829542
0.08793623
0.08195418
0.011365907
0.059222363
0.09750752
0.03290131
0.09870394
0.009571291
0.022731815
0.009571291
0.038285162
0.08315059
0.078364946
0.084347
0.02213361
0.06101698
0.076570325
0.06939186
0.053240303
0.040079776
0.06580262
0.03409772
0.00059820566
0.01375873
0.00059820566
-0.010767702
-0.005383851
0.04725825
0.053240303
0.010169497
0.059222363
0.03050849
0.05144569
0.04725825
0.03409772
0.0634098
0.036490545
0.053838514
0.018544376
0.02871387
0.039481577
0.02213361
0.029312078
0.00837488
0.049651075
0.09272188
0.07956135
0.03409772
0.03349952
0.040677987
0.07238289
0.049651075
0.040079776
0.06999007
0.052043896
0.012562319
0.0317049
0.06580262
0.0035892338
0.014356935
0.03409772
0.03529413
0.008973085
0.059222363
0.08075776
0.025124637
0.022731815
0.040677987
0.026919257
0.04127619
0.07956135
0.083748795
0.06879365
0.043669015
0.013160524
0.037686955
0.053240303
0.029910281
0.02213361
0.06460622
0.08733803
0.06520442
0.022731815
0.03230311
0.052043896
0.078364946
0.026919257
0.025124637
0.09810573
0.06879365
0.07298109
0.025124637
0.043669015
0.025722845
0.03290131
0.03349952
0.053240303
0.011964113
0.06520442
0.046660043
0.0741775
0.022731815
0.014356935
0.06879365
0.037686955
0.040677987
0.0634098
0.052642096
0.07477571
0.047856454
0.016151555
0.013160524
0.029312078
0.031106694
