0.010767702
0.0011964113
0.049052864
0.026919257
0.0077766734
0.03529413
0.07058826
0.0634098
0.0634098
0.00418744
0.062213387
0.052043896
0.03888337
0.05503492
0.0945165
0.04486543
0.040079776
0.040079776
0.05742774
0.059820563
0.047856454
-0.009571291
0.008973085
-0.0023928226
0.06759725
0.059222363
0.059222363
0.023330022
0.058624156
0.0741775
0.0735793
0.059820563
0.050249275
0.056231335
0.0634098
0.011964113
0.011964113
0.011964113
-0.039481577
0.026321048
0.056231335
0.03349952
0.028115667
0.02751746
0.025124637
0.025124637
0.038285162
0.06939186
0.0735793
0.09391828
0.01375873
0.028115667
0.05144569
0.0628116
0.0628116
0.06699904
0.014356935
0.07178468
0.084347
0.01794617
0.021535404
0.056231335
0.040677987
0.040677987
0.03529413
-0.0011964113
0.014356935
0.017347965
0.059222363
0.0029910284
0.019142581
0.011964113
0.011964113
-0.017347965
0.05144569
-0.029910281
-0.052043896
-0.07058826
-0.05742774
0.01375873
0.021535404
0.05503492
0.05503492
0.062213387
0.05503492
0.06759725
0.091525465
0.078364946
0.023330022
0.029910281
0.020937199
0.020937199
0.046660043
-0.018544376
-0.009571291
0.03230311
-0.03230311
0.028115667
0.015553347
0.00837488
0.00837488
-0.011365907
0.01674976
0.010767702
0.015553347
0.031106694
0.041874398
0.049651075
0.038285162
0.038285162
0.049052864
0.06759725
0.01375873
0.037686955
0.018544376
0.05742774
0.013160524
0.084347
0.059820563
0.059820563
0.047856454
0.013160524
0.049651075
0.028115667
0.05742774
0.09332009
0.08015955
0.043669015
0.043669015
0.04426722
0.020338994
0.08853444
0.049651075
0.043669015
0.04127619
0.036490545
0.031106694
0.031106694
0.029910281
-0.006580262
0.02751746
0.042472597
0.07716853
0.019740788
0.008973085
0.052043896
0.052043896
0.060418773
0.0741775
0.052642096
0.026321048
0.02751746
0.0741775
0.06699904
0.019142581
0.049651075
0.049651075
0.08793623
0.03529413
0.043070808
0.039481577
0.049651075
0.019740788
0.04127619
0.04546363
0.04546363
0.047856454
0.05144569
0.046061836
0.058624156
0.089132644
0.023330022
0.03230311
0.08973086
0.08973086
0.049651075
0.0634098
0.052642096
0.07298109
0.049651075
0.03469593
0.04127619
0.022731815
0.022731815
0.049052864
0.026321048
0.054436717
0.026321048
0.05503492
0.04426722
0.023330022
0.056231335
0.056231335
0.05742774
0.03708875
0.05503492
0.060418773
0.04486543
0.03888337
0.021535404
0.01794617
0.03469593
0.03469593
0.019740788
0.03469593
0.075972125
0.07178468
0.048454657
0.03290131
0.029910281
0.006580262
0.006580262
0.00059820566
0.059222363
0.050249275
0.05742774
0.050249275
0.06819544
0.0634098
0.03888337
0.03888337
0.04127619
0.00418744
0.00837488
0.011365907
0.022731815
0.055633124
0.050847482
-0.0017946169
-0.0017946169
0.020937199
0.03529413
0.039481577
0.013160524
0.019740788
0.02751746
0.009571291
0.05144569
0.03589234
0.03589234
0.03349952
0.028115667
0.04486543
0.040079776
0.0741775
0.020338994
0.03708875
0.009571291
0.009571291
0.04127619
0.049651075
-0.010169497
0.03589234
0.049052864
0.017347965
0.0077766734
0.009571291
0.009571291
0.019740788
0.031106694
0.02751746
0.025124637
0.03888337
0.049651075
0.06520442
0.019142581
0.019142581
0.023330022
0.029910281
0.039481577
0.039481577
0.02213361
0.03589234
0.052043896
0.01794617
0.01794617
0.01794617
0.0023928226
0.010767702
0.018544376
0.043669015
0.005383851
0.03589234
0.02871387
0.014955141
0.014955141
0.023928227
0.048454657
0.056829542
0.040677987
0.024526432
0.010169497
0.0628116
0.043070808
0.043070808
0.0017946169
0.04426722
0.02871387
0.019142581
0.029910281
0.046660043
0.041874398
0.03290131
0.03290131
0.025722845
0.031106694
0.03290131
0.020338994
0.04127619
0.025722845
0.071186475
0.037686955
0.008973085
0.008973085
0.028115667
-0.0029910284
0.047856454
0.04725825
0.043070808
-0.0077766734
0.026321048
0.06939186
0.06939186
0.052642096
0.07058826
0.013160524
0.039481577
0.043070808
0.043070808
0.054436717
0.053240303
0.053240303
0.03888337
0.076570325
0.13339986
0.059222363
0.06460622
0.023928227
0.05144569
0.050847482
0.050847482
0.010169497
-0.0011964113
0.055633124
0.056829542
0.04725825
0.06460622
0.06939186
0.04546363
0.04546363
0.042472597
0.052043896
0.029312078
0.05144569
0.05144569
-0.005383851
0.06520442
0.038285162
0.019142581
0.019142581
0.07058826
0.048454657
0.06101698
0.019142581
0.06580262
0.062213387
-0.00837488
0.0011964113
0.0011964113
0.023330022
0.029312078
0.029910281
0.03529413
0.071186475
0.05503492
0.03469593
0.04486543
0.04486543
0.041874398
0.059820563
0.04127619
0.03409772
0.040079776
0.04546363
0.023928227
0.061615184
0.061615184
0.07178468
0.031106694
0.036490545
0.01794617
0.050847482
0.04426722
0.012562319
0.049052864
0.0317049
0.0317049
0.03529413
0.020338994
0.019142581
-0.00418744
0.028115667
0.056231335
0.019740788
0.029312078
0.029312078
0.11066805
0.019142581
0.005383851
0.050847482
0.03050849
0.03589234
0.062213387
0.025124637
0.025124637
-0.011365907
0.037686955
0.026321048
0.00059820566
0.037686955
0.060418773
0.08195418
0.037686955
0.037686955
0.026919257
-0.020338994
0.06101698
0.047856454
0.0077766734
-0.00059820566
0.02871387
0.075972125
0.06460622
0.06460622
0.0741775
0.06520442
0.043669015
-0.0023928226
0.052642096
0.025722845
0.0735793
0.058025952
0.058025952
0.07178468
0.01674976
0.043669015
-0.01674976
0.042472597
0.04426722
0.040079776
0.039481577
0.039481577
0.029910281
-0.0017946169
0.029312078
0.061615184
-0.0047856453
0.008973085
0.008973085
0.012562319
0.012562319
0.0035892338
0.02213361
0.056231335
0.04426722
0.055633124
0.07058826
0.096311115
0.029910281
0.075972125
0.075972125
0.049651075
0.07298109
0.021535404
0.066400826
0.01375873
0.023928227
0.047856454
0.052642096
0.052642096
0.046061836
0.06699904
0.048454657
0.0023928226
0.081355974
0.06520442
0.043669015
0.03469593
0.03469593
0.0077766734
0.0628116
0.078364946
0.038285162
0.0077766734
0.052642096
0.04127619
0.049052864
0.049052864
0.028115667
0.07956135
0.040677987
0.03349952
0.023330022
-0.0059820567
0.06879365
0.03290131
0.03290131
0.009571291
0.05144569
0.06819544
0.040079776
0.0035892338
0.020937199
0.046660043
0.07178468
0.07178468
0.048454657
0.039481577
0.039481577
0.023928227
0.026321048
0.038285162
0.03050849
0.026919257
0.046061836
0.046061836
0.046660043
0.05742774
0.062213387
0.04127619
0.078364946
0.0735793
0.06520442
0.016151555
0.016151555
0.03349952
0.006580262
0.08015955
0.050847482
0.03708875
0.04127619
0.049052864
0.043070808
0.043070808
0.06101698
0.054436717
0.058025952
0.0011964113
0.03529413
0.02871387
0.011365907
0.083748795
0.083748795
-0.0035892338
0.01674976
0.02213361
0.022731815
0.03290131
0.01794617
-0.00059820566
0.0011964113
0.052642096
0.052642096
0.0071784677
0.018544376
0.03708875
0.0077766734
0.021535404
0.02871387
0.022731815
0.013160524
0.013160524
0.066400826
0.03230311
0.03349952
0.055633124
0.056231335
0.020338994
0.024526432
0.036490545
0.036490545
0.05144569
0.059820563
0.028115667
0.049651075
0.03469593
0.061615184
0.023928227
0.048454657
0.048454657
0.05503492
0.026919257
0.03050849
0.03888337
0.016151555
0.066400826
0.07477571
0.018544376
0.058025952
0.058025952
0.081355974
0.054436717
0.08075776
0.036490545
0.01794617
0.026919257
0.0023928226
0.042472597
0.042472597
0.06699904
0.075972125
0.089132644
0.059820563
0.04725825
0.058025952
0.023928227
0.02871387
0.02871387
0.03230311
0.020937199
0.02871387
0.04426722
0.03529413
0.024526432
0.058025952
0.075972125
0.075972125
0.03529413
0.024526432
0.03469593
0.066400826
0.066400826
0.0059820567
0.06819544
0.08075776
0.08075776
0.059820563
0.018544376
0.038285162
0.060418773
0.07058826
0.04725825
0.050847482
0.052043896
0.029312078
0.029312078
0.05144569
0.04546363
0.08853444
0.048454657
0.0951147
0.02751746
0.03888337
0.03409772
0.03409772
0.026321048
0.0077766734
0.03349952
0.07537391
0.052642096
0.084347
0.084945194
0.058025952
0.058025952
0.03050849
0.03230311
0.03409772
0.03589234
0.0317049
0.040079776
0.046061836
0.03708875
0.03708875
0.04725825
0.023330022
0.043070808
0.047856454
0.08015955
0.060418773
0.029910281
0.06580262
0.039481577
0.039481577
0.043669015
0.0634098
0.08793623
0.078364946
0.018544376
0.024526432
0.06699904
0.04725825
0.04725825
0.041874398
0.02213361
0.025722845
0.029910281
0.05503492
0.0634098
0.06999007
0.059820563
0.059820563
0.05144569
0.036490545
0.03708875
0.036490545
0.01375873
0.07776674
0.06520442
0.041874398
0.041874398
-0.0077766734
0.026321048
0.020338994
0.03708875
0.04486543
0.04486543
0.03290131
0.050847482
0.0047856453
0.0047856453
0.02213361
-0.014356935
0.050249275
0.03708875
0.047856454
0.043070808
0.040079776
0.050249275
0.050249275
0.054436717
-0.011365907
0.05742774
0.053240303
0.037686955
-0.0035892338
0.07058826
0.07178468
0.07178468
0.03409772
0.022731815
0.025124637
-0.01375873
0.023928227
0.00418744
0.01794617
0.019740788
0.019740788
0.06819544
0.031106694
0.01674976
0.053838514
0.023928227
0.05144569
0.089132644
0.066400826
0.08793623
0.08793623
0.03708875
0.04486543
0.053240303
0.023330022
0.031106694
0.011365907
0.029910281
0.09212367
0.09212367
0.09032906
0.050249275
0.006580262
0.023330022
0.06699904
0.050847482
0.040677987
0.02213361
0.02213361
0.07776674
0.055633124
0.06699904
0.023928227
0.03230311
0.0071784677
-0.026919257
0.089132644
0.089132644
0.019142581
0.029312078
0.06460622
0.040079776
0.012562319
0.0017946169
0.02871387
0.04486543
0.023928227
0.023928227
0.03469593
0.03409772
0.07716853
0.0071784677
-0.005383851
0.04486543
0.03888337
0.066400826
0.066400826
0.07896315
0.01674976
0.020937199
0.023928227
0.006580262
0.025124637
0.052642096
0.016151555
0.016151555
0.021535404
-0.0059820567
0.013160524
0.0071784677
0.04546363
0.013160524
0.024526432
0.0
0.0
0.0047856453
0.07537391
0.041874398
0.014356935
0.018544376
0.014356935
0.043669015
0.041874398
0.041874398
0.08673982
0.018544376
0.043669015
0.025124637
0.008973085
0.026919257
0.03708875
0.08673982
0.053838514
0.053838514
0.03529413
0.029312078
0.04486543
0.020338994
0.03708875
0.037686955
0.04546363
0.040677987
0.040677987
0.06939186
0.047856454
-0.011964113
-0.0059820567
0.03529413
0.03469593
0.07956135
0.05742774
0.05742774
0.042472597
0.06879365
0.03888337
0.058025952
0.039481577
0.012562319
0.04546363
0.029312078
0.029312078
0.043070808
0.042472597
0.029910281
0.019740788
0.02751746
0.046660043
0.03050849
0.037686955
0.052642096
0.052642096
0.06999007
-0.0047856453
0.043070808
0.058624156
0.05742774
0.04486543
0.04426722
0.025722845
0.025722845
0.0628116
-0.0011964113
-0.0071784677
0.026919257
0.038285162
0.050847482
0.0029910284
0.025124637
0.025124637
0.026919257
0.024526432
0.06520442
0.0628116
0.089132644
0.03708875
0.016151555
0.040079776
0.040079776
0.029312078
0.025722845
0.017347965
0.037686955
0.06101698
0.02213361
0.028115667
0.071186475
0.071186475
0.031106694
0.008973085
-0.0029910284
0.020338994
0.08075776
0.049052864
0.04426722
0.04127619
0.026919257
0.026919257
0.0035892338
0.014955141
0.036490545
0.056231335
0.07896315
0.038285162
-0.040079776
0.05503492
0.05503492
0.053838514
0.066400826
0.015553347
-0.011964113
0.040079776
0.081355974
0.017347965
0.020937199
0.020937199
0.052642096
0.05503492
0.03888337
0.03589234
0.0011964113
0.05742774
0.038285162
0.03230311
0.03230311
0.03349952
-0.016151555
0.07537391
0.021535404
0.064008005
0.01674976
0.023330022
0.025124637
0.025124637
0.04546363
0.03469593
0.01375873
0.0317049
0.07776674
0.03708875
0.037686955
0.03349952
0.011365907
0.011365907
0.060418773
0.020338994
0.07238289
0.061615184
0.01375873
0.06759725
0.08195418
0.04486543
0.04486543
0.05503492
0.07178468
0.047856454
0.029312078
0.049651075
-0.011365907
0.07298109
0.081355974
0.081355974
0.062213387
0.062213387
0.05503492
0.03589234
0.062213387
0.012562319
-0.0035892338
0.010169497
0.010169497
0.053240303
0.09391828
0.083748795
0.053838514
0.04486543
0.059222363
0.02213361
0.042472597
0.060418773
0.060418773
0.037686955
0.075972125
0.03409772
0.059820563
0.012562319
0.062213387
0.00837488
0.026321048
0.026321048
0.00837488
0.025722845
0.03409772
0.014955141
0.061615184
0.058025952
0.0735793
0.03529413
0.03529413
0.039481577
0.028115667
0.054436717
0.06101698
0.049651075
0.03888337
0.025722845
0.0023928226
0.0023928226
0.03290131
0.03888337
0.025124637
0.020338994
0.053838514
0.043070808
0.03888337
0.0011964113
0.011964113
0.011964113
0.09810573
0.04546363
0.01375873
0.07298109
0.052642096
0.0077766734
-0.006580262
0.0071784677
0.0071784677
0.081355974
0.014356935
0.019142581
0.03469593
0.039481577
0.029312078
0.050847482
0.019740788
0.019740788
0.011365907
0.037686955
0.0628116
0.008973085
0.03349952
0.029910281
0.060418773
0.03469593
0.03469593
0.037686955
0.03230311
0.040079776
0.0634098
0.06999007
0.026321048
0.00837488
0.024526432
0.018544376
0.018544376
0.05144569
0.059820563
-0.01375873
0.055633124
0.025124637
0.029312078
0.03469593
0.024526432
0.024526432
0.066400826
0.07298109
0.03230311
0.023330022
0.08015955
0.0634098
0.06460622
0.076570325
0.076570325
0.066400826
0.042472597
0.02871387
0.015553347
0.016151555
0.06101698
-0.0011964113
0.018544376
0.018544376
0.01794617
0.049651075
0.059222363
0.054436717
0.04725825
0.04127619
0.03708875
0.086141616
0.03469593
0.03469593
0.040677987
0.025722845
0.013160524
0.047856454
0.009571291
0.03888337
0.0029910284
0.025722845
0.025722845
0.021535404
0.08015955
0.041874398
0.0047856453
0.018544376
0.036490545
0.081355974
0.049651075
0.049651075
0.03529413
0.037686955
0.02213361
0.09212367
0.049052864
0.046061836
0.021535404
0.010767702
0.010767702
0.029910281
0.046061836
0.038285162
0.011964113
0.019142581
0.0029910284
0.025722845
0.012562319
0.03290131
0.03290131
0.03290131
0.039481577
0.016151555
0.078364946
0.0951147
0.07537391
0.01794617
0.016151555
0.016151555
0.01674976
0.04486543
0.03589234
0.04127619
0.015553347
0.036490545
0.081355974
0.048454657
0.048454657
0.07238289
0.041874398
0.03290131
0.029312078
0.059820563
0.025124637
0.03050849
0.08195418
0.08195418
0.043669015
0.025722845
0.050249275
0.03589234
0.049651075
0.050847482
0.03529413
0.03529413
0.03529413
0.03050849
0.029910281
0.047856454
0.031106694
0.046660043
0.055633124
0.008973085
0.041874398
0.049052864
0.049052864
0.050847482
0.016151555
0.050249275
0.066400826
0.029312078
0.06819544
0.076570325
0.03469593
0.03469593
0.04546363
0.025124637
0.04127619
0.084945194
0.05742774
0.049052864
0.03230311
0.03290131
0.03290131
0.016151555
-0.008973085
0.03708875
0.011964113
-0.006580262
0.049651075
0.023928227
0.048454657
0.048454657
0.024526432
0.03290131
-0.009571291
0.02871387
0.058025952
0.04546363
-0.0029910284
0.04486543
0.0317049
0.0317049
0.059222363
0.009571291
0.04486543
0.03290131
0.04725825
0.01674976
0.01375873
0.064008005
0.064008005
0.052642096
0.020338994
-0.00418744
0.015553347
0.03050849
0.03349952
0.06759725
0.047856454
0.047856454
0.00837488
0.019142581
0.012562319
0.0628116
0.06580262
0.011964113
0.029910281
0.03469593
0.03469593
-0.018544376
0.011964113
0.037686955
0.07058826
0.052043896
-0.011365907
0.059820563
0.029312078
0.018544376
0.018544376
0.0029910284
0.05144569
0.005383851
0.03290131
0.03409772
0.00059820566
0.039481577
0.023928227
0.023928227
0.021535404
0.018544376
0.0317049
0.01794617
0.03409772
0.04127619
-0.019142581
0.025722845
0.025722845
0.01674976
0.0035892338
0.050249275
0.017347965
0.024526432
-0.0071784677
0.04725825
0.036490545
0.036490545
0.02213361
0.03888337
0.06879365
0.084945194
0.071186475
0.036490545
0.03888337
0.02213361
0.03349952
0.03349952
0.02871387
0.071186475
0.03050849
0.06759725
0.040079776
0.025124637
0.03349952
0.038285162
0.038285162
0.025722845
0.04486543
0.09272188
0.048454657
0.04725825
0.040677987
0.021535404
0.03708875
0.03708875
0.02871387
0.04426722
0.024526432
0.04127619
0.025124637
0.041874398
0.0017946169
0.0
0.0
0.023928227
0.016151555
0.043070808
0.0077766734
0.061615184
0.061615184
0.049052864
0.053838514
0.053838514
0.039481577
0.066400826
0.059820563
0.049052864
0.01674976
0.03050849
0.028115667
0.03409772
0.06819544
0.06819544
0.07298109
0.054436717
0.040677987
0.03469593
0.03230311
0.06101698
0.029910281
0.03409772
0.03409772
0.086141616
0.05144569
0.049651075
0.047856454
0.055633124
0.02871387
0.055633124
0.05742774
0.05742774
0.043070808
0.05742774
0.050249275
0.042472597
0.020937199
0.029312078
0.0029910284
0.026919257
0.026919257
0.050249275
0.052642096
0.006580262
0.03888337
0.05144569
0.056829542
0.029312078
0.03469593
0.0071784677
0.0071784677
0.06939186
0.038285162
0.056231335
0.017347965
0.038285162
0.050249275
0.056231335
0.06699904
0.06699904
0.022731815
0.047856454
0.022731815
0.026919257
0.052043896
-0.006580262
0.028115667
0.050249275
0.050249275
0.036490545
0.04426722
0.013160524
0.009571291
0.010767702
0.036490545
0.0011964113
0.058624156
0.058624156
0.07716853
0.043669015
0.056829542
0.056829542
0.017347965
0.03349952
0.02871387
-0.0029910284
0.053240303
0.053240303
0.03708875
0.013160524
0.043669015
0.046061836
0.050249275
0.043669015
0.03349952
0.043669015
0.043669015
0.031106694
-0.00059820566
0.04725825
0.056829542
0.0047856453
0.016151555
0.022731815
0.06939186
0.06939186
0.022731815
0.03708875
0.07178468
0.052043896
0.06759725
0.015553347
0.043070808
0.059820563
0.059820563
0.043070808
0.03708875
0.023330022
0.03050849
0.008973085
0.058025952
0.0317049
0.043070808
0.048454657
0.048454657
0.03469593
0.019740788
0.021535404
0.043070808
0.040677987
0.03529413
0.011964113
0.010169497
0.010169497
0.04426722
0.04486543
0.026321048
0.011964113
0.05742774
0.06759725
0.01375873
0.026919257
0.026919257
0.047856454
0.083748795
0.08973086
0.03529413
0.01375873
0.026919257
0.040677987
0.022731815
0.022731815
0.028115667
0.062213387
0.07298109
0.058025952
0.0023928226
0.025124637
0.066400826
0.0077766734
-0.01375873
-0.01375873
0.050249275
0.0317049
0.039481577
0.026321048
0.049651075
0.023928227
-0.0029910284
0.04127619
0.04127619
0.06580262
0.064008005
-0.00837488
0.038285162
0.06460622
0.046061836
-0.00418744
0.038285162
0.038285162
0.06759725
0.03529413
0.07178468
0.055633124
0.04546363
0.011365907
0.06101698
0.07178468
0.07178468
0.04725825
0.0628116
0.03529413
0.008973085
0.01674976
0.036490545
0.06460622
0.08673982
0.037686955
0.037686955
0.06699904
0.07716853
0.0317049
0.0628116
0.03349952
0.029910281
-0.00059820566
0.011964113
0.011964113
0.011365907
-0.00418744
0.038285162
0.0628116
0.056829542
0.0628116
0.058025952
0.050847482
0.050847482
0.042472597
0.055633124
0.08015955
0.018544376
-0.02751746
0.052043896
0.06819544
0.07058826
0.07058826
0.011964113
0.04127619
0.052642096
0.053838514
0.049651075
0.029312078
0.03349952
0.05144569
0.05144569
0.029312078
0.041874398
0.08075776
0.059820563
0.020937199
0.03409772
0.014356935
0.066400826
0.053838514
0.053838514
0.011365907
0.0077766734
0.025124637
0.014955141
0.036490545
0.011964113
0.0735793
0.03589234
0.03589234
0.052043896
0.048454657
0.058624156
0.052043896
0.021535404
0.06939186
0.014955141
0.009571291
0.009571291
0.038285162
0.0317049
0.023928227
0.020338994
0.056829542
0.050249275
0.025722845
-0.011365907
-0.011365907
0.056829542
-0.0011964113
0.05144569
0.028115667
0.011365907
0.014356935
0.06101698
0.04127619
0.02213361
0.02213361
0.07716853
0.02751746
0.013160524
0.025124637
-0.00418744
0.048454657
0.05503492
-0.014356935
-0.014356935
0.0011964113
0.023330022
0.053838514
0.028115667
0.038285162
0.04426722
0.03050849
0.026919257
0.026919257
0.031106694
0.008973085
0.03290131
0.03050849
0.022731815
0.048454657
0.06460622
0.043070808
0.043070808
0.06939186
0.050249275
0.0735793
-0.018544376
0.031106694
0.0634098
0.058025952
0.014955141
0.014955141
0.03290131
0.00837488
0.017347965
0.029312078
0.055633124
0.059820563
0.07298109
0.04546363
0.04546363
0.03290131
0.010767702
0.052642096
0.036490545
0.09092726
0.0011964113
0.058025952
0.0317049
0.040677987
0.040677987
0.009571291
0.0077766734
0.05144569
0.022731815
0.049651075
0.040079776
0.04486543
0.084945194
0.084945194
0.02213361
0.04127619
0.03409772
0.0059820567
0.024526432
0.03708875
0.022731815
0.03050849
0.03050849
0.054436717
-0.0023928226
0.023928227
0.037686955
-0.00059820566
0.0317049
0.019142581
0.05144569
0.05144569
0.023330022
0.047856454
0.04486543
0.075972125
0.02751746
0.02751746
0.078364946
0.006580262
0.010169497
0.010169497
0.056231335
0.029312078
0.058025952
0.03230311
0.038285162
0.059820563
0.084945194
0.04426722
0.04426722
0.053240303
0.1058824
0.03529413
0.049651075
0.060418773
0.018544376
0.055633124
0.029312078
0.029312078
0.054436717
0.021535404
0.04486543
0.019740788
0.03589234
0.04426722
0.07298109
0.014955141
0.06101698
0.06101698
0.07477571
0.016151555
0.040677987
0.031106694
0.052043896
-0.00059820566
0.03708875
0.060418773
0.060418773
0.07537391
0.03409772
0.04127619
0.0317049
0.056231335
0.06759725
0.053838514
0.012562319
0.012562319
0.018544376
-0.0023928226
0.0317049
0.025722845
-0.0047856453
0.0317049
0.078364946
0.013160524
0.013160524
0.03469593
0.055633124
0.046061836
0.016151555
0.04127619
0.020338994
0.017347965
0.04426722
0.059222363
0.059222363
0.010767702
0.029312078
0.06879365
0.060418773
0.019740788
0.025722845
0.026919257
0.075972125
0.075972125
0.043070808
0.012562319
0.040677987
0.04426722
0.02213361
0.011365907
0.010169497
0.020338994
0.020338994
0.02751746
0.096311115
0.06460622
0.031106694
0.058025952
0.053838514
0.00418744
0.06460622
0.06460622
0.05503492
0.0317049
0.03888337
0.008973085
-0.011964113
0.08853444
0.04725825
0.006580262
0.04486543
0.04486543
0.03290131
0.04127619
0.031106694
0.019142581
0.05144569
0.040677987
0.046061836
0.04725825
0.04725825
0.03589234
0.046061836
0.04725825
0.038285162
0.06520442
0.026321048
0.036490545
0.053240303
0.053240303
0.062213387
0.060418773
-0.014356935
0.046061836
0.10229316
-0.009571291
-0.012562319
0.01375873
0.01375873
0.03888337
0.013160524
0.05742774
0.06759725
0.054436717
0.038285162
0.04426722
0.04546363
0.04546363
0.041874398
0.066400826
0.018544376
0.038285162
0.052642096
0.02213361
0.049651075
0.042472597
0.021535404
0.021535404
0.026321048
0.02871387
0.046660043
0.025722845
0.049052864
0.047856454
0.06699904
0.011964113
0.011964113
0.06759725
0.016151555
0.029910281
0.060418773
0.048454657
0.03050849
0.03469593
0.025722845
0.025722845
0.025124637
0.037686955
0.015553347
0.026919257
0.008973085
0.02751746
0.0017946169
0.005383851
0.005383851
0.023928227
0.05503492
0.04486543
0.014955141
0.049651075
0.00059820566
0.019740788
0.00837488
0.0071784677
0.0071784677
0.03050849
0.036490545
0.054436717
0.03589234
0.029312078
0.012562319
0.059820563
0.03050849
0.03050849
-0.014356935
0.021535404
0.031106694
0.07238289
0.05503492
0.060418773
-0.0017946169
0.04127619
0.04127619
0.058624156
0.025722845
0.054436717
0.0047856453
0.071186475
0.062213387
0.009571291
0.055633124
0.055633124
0.019142581
0.025722845
0.06580262
0.025722845
0.03409772
0.02213361
0.036490545
0.019142581
0.04546363
0.04546363
0.018544376
0.05503492
0.04426722
0.031106694
0.026919257
0.03469593
-0.0047856453
0.04486543
0.04486543
0.021535404
0.046660043
0.006580262
0.03230311
0.038285162
0.01375873
0.00837488
0.05742774
0.05742774
0.028115667
0.06520442
0.03409772
0.016151555
0.039481577
0.040079776
0.019740788
0.066400826
0.066400826
-0.009571291
0.029910281
0.024526432
0.048454657
0.05144569
0.0951147
0.02751746
0.019740788
0.019740788
0.0317049
0.06759725
0.019740788
0.053838514
0.050249275
0.053240303
0.023330022
0.008973085
0.026321048
0.026321048
0.0634098
0.056231335
0.012562319
0.03469593
0.0011964113
0.03409772
0.040079776
0.06939186
0.06939186
0.03708875
0.042472597
0.028115667
0.050249275
0.037686955
0.016151555
0.03230311
0.054436717
0.054436717
0.052642096
0.00837488
0.059820563
0.03469593
0.0628116
0.04486543
0.023928227
0.00418744
0.00418744
0.036490545
0.0017946169
0.039481577
0.03888337
0.06939186
0.043070808
0.08015955
0.046660043
0.04725825
0.04725825
0.03708875
0.09212367
0.04486543
0.023928227
0.07238289
0.029312078
0.056231335
0.08793623
0.08793623
0.056829542
0.0317049
0.04127619
0.0077766734
0.04426722
0.054436717
0.052043896
0.042472597
0.042472597
0.050249275
0.012562319
0.0077766734
0.026321048
0.061615184
0.01375873
0.026919257
0.043669015
0.043669015
0.03888337
0.012562319
0.02871387
0.043669015
0.06101698
0.058025952
0.03409772
0.08075776
0.07298109
0.07298109
0.056231335
-0.0077766734
0.024526432
0.036490545
0.055633124
0.03469593
0.061615184
0.011964113
0.011964113
0.0077766734
0.03290131
0.028115667
0.018544376
0.05503492
0.0017946169
0.08075776
0.06520442
0.06520442
0.038285162
0.03349952
0.056231335
0.047856454
0.050847482
0.04486543
0.04426722
0.043669015
0.043669015
0.03589234
0.02871387
0.025124637
0.039481577
0.006580262
0.07178468
0.048454657
0.0011964113
0.00418744
0.00418744
0.059222363
-0.0017946169
0.008973085
0.05742774
0.010767702
0.03708875
0.040677987
0.031106694
0.031106694
0.064008005
0.0951147
0.10528419
0.061615184
0.02751746
0.023330022
0.029312078
0.03290131
0.03290131
0.020937199
0.03469593
0.009571291
0.022731815
0.03469593
-0.019740788
0.08315059
0.03589234
0.03589234
0.03290131
0.039481577
0.0634098
0.011964113
0.015553347
0.0945165
0.08015955
0.0077766734
0.0077766734
0.0035892338
0.07178468
0.04426722
-0.013160524
0.020338994
0.059222363
0.050847482
-0.0047856453
0.026321048
0.026321048
0.010767702
0.03349952
0.014955141
0.076570325
0.09272188
0.04426722
0.05742774
0.02213361
0.02213361
0.03529413
0.029910281
0.08075776
0.005383851
0.042472597
0.026919257
0.025722845
-0.0023928226
-0.0023928226
0.0035892338
0.02751746
0.03589234
0.052642096
0.05503492
0.066400826
0.049651075
0.036490545
0.036490545
0.040079776
0.031106694
0.04725825
0.029312078
0.018544376
0.01794617
0.021535404
-0.022731815
0.00837488
0.00837488
0.038285162
0.052043896
0.037686955
0.052043896
0.084347
0.08554341
0.04546363
0.02213361
0.02213361
0.049651075
0.041874398
0.006580262
0.03888337
0.015553347
0.018544376
0.059820563
0.03529413
0.03529413
0.041874398
0.038285162
0.066400826
0.04725825
0.031106694
0.029312078
0.018544376
0.020937199
0.020937199
-0.011365907
0.0071784677
0.041874398
0.046061836
0.07477571
0.055633124
0.03708875
0.062213387
0.03888337
0.03888337
0.060418773
-0.014356935
0.059222363
0.049052864
0.014356935
0.0077766734
0.012562319
0.020937199
0.020937199
0.026919257
0.0634098
0.04546363
0.05503492
0.05742774
0.039481577
0.029910281
0.07776674
0.07776674
0.046660043
0.04546363
0.06520442
0.031106694
0.020338994
0.017347965
0.09092726
0.09092726
0.043070808
0.06759725
0.03349952
0.040677987
0.03888337
0.06759725
0.07178468
0.025124637
0.025124637
0.0317049
0.028115667
0.01794617
0.00059820566
0.019142581
0.03290131
0.03469593
0.06580262
0.06580262
-0.00059820566
0.040677987
0.058025952
0.0077766734
0.049651075
0.043070808
0.020338994
0.0077766734
0.028115667
0.028115667
0.06580262
0.03349952
0.01794617
0.02213361
0.006580262
0.020937199
0.049651075
0.060418773
0.060418773
0.04127619
0.01794617
0.0011964113
0.07298109
0.03349952
0.048454657
0.0035892338
0.025722845
0.025722845
0.043669015
0.008973085
0.026919257
0.040677987
0.084945194
0.050847482
0.04486543
0.023330022
0.023330022
0.020338994
0.03349952
0.043070808
0.04546363
0.07238289
0.062213387
0.059820563
0.0071784677
0.03589234
0.03589234
0.07298109
-0.0029910284
0.025124637
0.04486543
0.059820563
0.083748795
0.05144569
0.01674976
0.01674976
0.021535404
-0.00837488
0.03409772
0.005383851
0.0634098
0.025124637
0.06520442
0.042472597
0.042472597
0.055633124
0.06580262
0.03409772
0.04725825
0.019740788
0.017347965
0.04486543
0.04127619
0.04127619
0.029312078
0.043070808
0.0029910284
0.022731815
0.03529413
-0.0317049
0.017347965
0.039481577
0.08315059
0.08315059
0.038285162
0.041874398
0.03529413
0.048454657
0.008973085
0.029910281
0.04546363
0.06999007
0.06999007
0.064008005
0.071186475
0.037686955
0.03230311
-0.014356935
0.016151555
0.03409772
0.05503492
0.05503492
0.037686955
0.020338994
0.02871387
0.04127619
0.040677987
-0.0071784677
0.048454657
0.03529413
0.03529413
0.050249275
0.038285162
0.059820563
0.02213361
0.03529413
0.020338994
-0.0011964113
0.012562319
0.012562319
0.0047856453
0.020338994
0.029312078
0.02751746
0.016151555
0.06460622
0.046061836
0.016151555
0.04725825
0.04725825
0.052043896
0.021535404
0.040677987
-0.0011964113
0.03290131
0.010767702
0.04486543
0.037686955
0.037686955
-0.011964113
0.06819544
0.043070808
0.053240303
0.037686955
0.06101698
0.059820563
0.05503492
0.05503492
0.029312078
0.016151555
0.015553347
0.03349952
0.01375873
0.06999007
0.06101698
0.03349952
0.03349952
0.0628116
0.023928227
0.055633124
0.043070808
0.013160524
0.061615184
0.052043896
0.0023928226
0.03409772
0.03409772
0.047856454
0.05503492
0.04725825
0.053838514
0.03349952
0.03230311
0.038285162
0.03349952
0.03349952
0.03230311
0.043669015
0.050847482
0.06460622
0.06759725
0.038285162
0.009571291
0.066400826
0.066400826
0.04426722
0.0628116
0.022731815
0.023928227
0.04486543
0.09272188
0.064008005
0.047856454
0.047856454
0.043070808
0.04546363
0.02751746
0.061615184
0.040079776
0.061615184
0.03589234
0.046061836
0.04725825
0.04725825
0.023330022
0.03888337
0.06999007
0.084945194
0.04486543
0.040079776
0.053240303
0.046660043
0.046660043
0.075972125
0.04546363
0.053838514
0.026321048
0.0071784677
0.08853444
0.046660043
-0.0011964113
-0.0011964113
0.04426722
0.00837488
0.0029910284
0.0628116
0.0735793
0.0735793
0.06699904
0.046660043
0.046660043
0.06879365
0.03708875
0.03529413
0.060418773
0.07776674
0.024526432
0.0628116
0.07058826
0.03469593
0.03469593
0.04486543
0.031106694
0.029312078
0.043669015
0.010169497
0.009571291
0.029312078
0.066400826
0.066400826
0.054436717
0.048454657
-0.0011964113
0.050847482
0.053838514
0.03050849
0.038285162
0.047856454
0.047856454
0.040079776
0.036490545
0.043070808
0.05742774
0.0059820567
0.040079776
0.012562319
0.03290131
0.03290131
0.042472597
0.052642096
0.05503492
0.07896315
0.031106694
0.03529413
0.048454657
0.01794617
0.01794617
0.0077766734
0.039481577
0.043070808
0.03589234
0.005383851
-0.009571291
0.041874398
0.040079776
0.0047856453
0.0047856453
0.049651075
0.06759725
0.043070808
0.0317049
-0.016151555
0.03290131
0.03349952
0.019142581
0.019142581
0.058624156
0.014955141
0.089132644
0.036490545
0.018544376
0.038285162
0.020338994
0.020338994
0.020338994
0.01674976
0.04546363
0.041874398
0.08195418
0.023330022
0.010767702
0.04486543
0.009571291
0.009571291
0.03589234
0.06101698
0.060418773
0.06520442
0.023330022
0.019740788
0.04725825
0.014356935
0.0047856453
0.0047856453
0.04486543
0.055633124
0.040677987
0.050249275
0.064008005
0.078364946
0.049651075
0.0317049
0.0317049
0.021535404
0.043070808
0.038285162
0.022731815
0.049052864
0.05742774
0.06101698
0.055633124
0.055633124
0.046660043
0.0317049
0.014356935
0.047856454
0.013160524
0.054436717
0.026919257
0.023928227
0.023928227
0.053240303
0.055633124
0.031106694
0.061615184
0.023330022
0.02871387
0.026919257
0.03230311
0.03230311
0.048454657
0.046660043
0.07537391
0.056829542
0.05144569
0.041874398
0.043070808
0.026321048
0.07058826
0.07058826
0.047856454
0.084347
0.029312078
0.041874398
0.04546363
0.01375873
0.03529413
0.050847482
0.050847482
0.019142581
0.018544376
0.039481577
0.020937199
-0.008973085
0.039481577
0.0741775
0.02871387
0.02871387
0.012562319
-0.0059820567
0.036490545
0.02871387
0.03349952
0.058025952
0.07776674
0.059222363
0.059222363
0.020338994
0.01674976
0.025124637
-0.010767702
0.028115667
0.041874398
-0.013160524
0.03469593
0.06819544
0.06819544
0.036490545
0.06759725
0.03409772
0.018544376
0.010767702
0.023330022
0.02213361
0.08853444
0.08853444
0.024526432
0.039481577
-0.0029910284
0.07477571
0.07716853
0.040677987
0.049052864
0.024526432
0.024526432
0.040079776
0.08015955
0.04127619
0.0077766734
0.022731815
0.061615184
0.03050849
0.0035892338
0.0035892338
0.03349952
0.041874398
0.03589234
0.010169497
0.06999007
0.03469593
0.049052864
0.050249275
-0.0017946169
-0.0017946169
0.054436717
0.046061836
0.06101698
0.03888337
0.020937199
0.0047856453
0.00418744
-0.005383851
-0.005383851
0.015553347
0.052043896
0.0634098
0.00837488
0.0
0.048454657
0.04127619
0.011964113
0.011964113
-0.03469593
0.042472597
0.043669015
0.047856454
0.012562319
0.04725825
0.014955141
0.053838514
0.053838514
0.038285162
0.046660043
0.039481577
0.040677987
0.019740788
0.036490545
0.06759725
0.060418773
0.03708875
0.03708875
0.031106694
0.024526432
0.03469593
0.023330022
0.010767702
0.02213361
0.00837488
0.020937199
0.020937199
0.06999007
0.071186475
0.053838514
0.025722845
0.029312078
0.023928227
0.03529413
0.042472597
0.042472597
0.014356935
0.023330022
0.010767702
0.054436717
0.075972125
0.02871387
0.062213387
0.07178468
0.07178468
0.02871387
0.026321048
0.04725825
0.03469593
0.023928227
0.096909314
0.076570325
0.07298109
0.040677987
0.040677987
0.056829542
0.03349952
0.01794617
0.031106694
0.062213387
0.019740788
0.03230311
-0.025124637
-0.025124637
0.025124637
0.009571291
0.05742774
0.06999007
0.03349952
0.056829542
0.055633124
0.03469593
0.03469593
0.01674976
0.04546363
0.018544376
0.0317049
0.050847482
0.037686955
0.08015955
0.042472597
0.042472597
0.03230311
0.08255238
0.0735793
0.04127619
0.075972125
0.029910281
0.04486543
0.046061836
-0.0047856453
-0.0047856453
0.013160524
0.03290131
0.03349952
0.03589234
0.075972125
0.054436717
0.04426722
0.009571291
0.009571291
0.020338994
0.010169497
0.071186475
0.011365907
0.06101698
0.03409772
0.017347965
0.02213361
0.02213361
0.062213387
0.038285162
0.025124637
0.06520442
0.059820563
-0.00837488
0.07716853
0.06101698
0.06101698
0.056231335
0.060418773
0.058025952
0.07178468
0.02871387
0.021535404
0.02751746
0.025124637
0.025124637
-0.03409772
0.023330022
0.023330022
0.0023928226
0.078364946
0.04725825
0.0735793
0.06879365
-0.0059820567
-0.0059820567
0.049052864
0.025722845
0.026321048
0.03469593
0.02871387
0.06520442
0.03409772
0.00837488
0.00837488
0.0023928226
0.036490545
0.010169497
0.058025952
-0.0011964113
0.06101698
0.0628116
0.059820563
0.059820563
0.012562319
0.026321048
0.03230311
0.052043896
0.081355974
0.06819544
0.03050849
0.03888337
0.03888337
0.041874398
0.043669015
0.02871387
0.0317049
0.08673982
0.08853444
0.021535404
0.017347965
0.017347965
0.020338994
0.031106694
0.03888337
0.029312078
0.018544376
0.0634098
0.01674976
0.039481577
0.06699904
0.06699904
0.09810573
0.03529413
0.047856454
0.011964113
0.00837488
0.026321048
0.052642096
0.014356935
0.014356935
0.03888337
0.06101698
0.011964113
0.053240303
0.06580262
0.009571291
0.038285162
0.014356935
0.014356935
0.06520442
0.03290131
0.006580262
0.011365907
0.020937199
0.083748795
0.071186475
-0.01794617
-0.01794617
0.05144569
0.021535404
0.050249275
0.046660043
0.06759725
0.019740788
0.037686955
0.053838514
0.086141616
0.086141616
0.059820563
0.016151555
0.0017946169
0.07058826
0.047856454
0.042472597
0.03290131
-0.0071784677
-0.0071784677
0.03469593
0.042472597
0.04546363
0.046061836
0.07058826
0.03529413
0.039481577
0.042472597
0.042472597
0.046061836
0.038285162
0.05144569
0.0628116
0.00418744
0.023330022
0.02213361
0.056231335
0.056231335
0.04486543
0.029312078
0.059222363
0.03349952
0.01794617
-0.0047856453
0.020937199
0.028115667
0.028115667
0.02871387
0.03469593
0.07178468
0.062213387
0.017347965
0.038285162
0.00059820566
0.0317049
0.0317049
0.0317049
0.00837488
0.011365907
0.036490545
0.018544376
0.059222363
0.07776674
0.050249275
0.043070808
0.043070808
0.053240303
0.0317049
0.026321048
0.005383851
0.022731815
0.03290131
0.058025952
0.0317049
0.0317049
0.04127619
0.037686955
0.0047856453
0.050847482
0.04486543
0.008973085
0.03589234
0.064008005
0.064008005
0.06819544
0.03409772
0.061615184
0.053838514
0.029910281
0.0
0.046660043
0.049052864
0.05742774
0.05742774
0.040677987
0.064008005
0.00059820566
0.037686955
0.031106694
0.040079776
0.024526432
0.039481577
0.039481577
0.038285162
0.029910281
-0.00418744
0.008973085
0.0071784677
0.049052864
0.020937199
0.06580262
0.06580262
0.040677987
0.042472597
0.03708875
0.046660043
0.058624156
0.062213387
-0.0017946169
0.07058826
0.07058826
0.05144569
-0.012562319
0.025124637
0.02213361
0.029312078
0.019142581
0.06520442
0.06819544
0.050847482
0.050847482
0.049052864
0.07298109
0.021535404
0.014356935
0.052642096
0.042472597
0.03888337
0.023928227
0.023928227
0.060418773
0.03409772
0.050847482
0.025124637
0.0951147
0.046061836
0.040677987
0.04426722
0.04426722
0.04546363
0.03349952
0.011365907
0.066400826
0.023928227
0.03529413
0.07058826
0.01375873
0.01375873
0.024526432
0.011964113
0.043669015
0.012562319
0.0741775
0.066400826
0.04546363
0.00418744
0.00418744
0.058025952
0.058025952
0.03469593
0.039481577
0.013160524
0.050249275
0.09092726
0.029910281
0.039481577
0.039481577
0.06879365
0.07238289
0.02751746
0.014356935
0.029910281
0.028115667
0.062213387
0.046061836
0.046061836
0.031106694
0.08853444
0.0317049
0.029910281
0.011964113
0.06939186
0.052043896
0.06699904
0.06699904
0.021535404
0.026919257
-0.024526432
0.04486543
0.04486543
0.026919257
0.039481577
0.07537391
0.07537391
0.04486543
0.03409772
0.058025952
0.052043896
0.060418773
0.025124637
0.037686955
0.086141616
0.015553347
0.015553347
0.04546363
0.0628116
0.029312078
0.023330022
0.031106694
0.013160524
0.05503492
0.04546363
0.04546363
0.03708875
0.07716853
-0.017347965
0.04127619
0.03349952
-0.020338994
0.04486543
0.016151555
0.016151555
0.020338994
0.046061836
0.026321048
0.039481577
0.0023928226
0.038285162
0.07298109
0.036490545
0.036490545
0.037686955
0.03349952
-0.01674976
0.02871387
0.04725825
0.026321048
0.0741775
0.03708875
0.03708875
0.050249275
0.049651075
0.0317049
0.040677987
0.010169497
0.042472597
0.02751746
0.039481577
0.024526432
0.024526432
0.017347965
0.03230311
0.031106694
0.064008005
0.03230311
0.010169497
0.043070808
0.03409772
0.03409772
0.036490545
0.06939186
0.06759725
0.062213387
0.06819544
0.023928227
0.053838514
0.016151555
0.016151555
0.006580262
0.05503492
0.052043896
0.08195418
0.04426722
0.03409772
0.052642096
0.062213387
0.062213387
0.02213361
0.053838514
0.043669015
0.014356935
0.03888337
0.04546363
0.014356935
0.03529413
0.066400826
0.066400826
0.04546363
0.013160524
0.02213361
0.03409772
0.024526432
0.03529413
-0.0047856453
0.0
0.0
0.050847482
0.040677987
0.021535404
-0.005383851
0.01794617
0.062213387
0.04127619
0.042472597
0.042472597
0.059222363
0.06460622
0.053240303
0.023330022
0.076570325
-0.00418744
0.060418773
0.081355974
0.081355974
0.01794617
0.014356935
-0.011365907
0.039481577
0.04546363
0.016151555
0.078364946
0.039481577
0.020338994
0.020338994
0.048454657
0.025124637
0.049651075
0.021535404
0.015553347
0.046061836
-0.00059820566
0.05144569
0.05144569
0.049052864
0.03050849
0.052043896
0.03529413
0.019740788
0.049651075
0.086141616
0.036490545
0.036490545
0.037686955
0.06759725
0.029312078
0.03349952
0.04426722
0.03888337
0.061615184
0.05144569
0.05144569
0.017347965
0.066400826
-0.0071784677
0.03529413
0.08015955
0.053240303
0.014955141
0.055633124
0.061615184
0.061615184
0.05144569
0.053838514
0.052043896
0.029312078
0.052043896
0.014955141
0.058025952
0.06580262
0.06580262
0.026919257
0.06759725
0.08554341
0.0035892338
0.0077766734
0.04486543
-0.014955141
-0.012562319
-0.012562319
0.022731815
0.061615184
0.025124637
0.06999007
0.03708875
0.049052864
0.04546363
0.03469593
0.03469593
0.025722845
0.026321048
0.053240303
0.014356935
-0.014955141
-0.00059820566
0.042472597
0.021535404
0.011365907
0.011365907
0.00059820566
0.04127619
0.08554341
0.023928227
-0.0059820567
0.04426722
0.047856454
0.03888337
0.03888337
0.042472597
0.010767702
0.06520442
0.029910281
0.05503492
0.052043896
0.04127619
0.07178468
0.07178468
0.01794617
0.052642096
0.046061836
-0.0071784677
0.03290131
0.026321048
0.026919257
0.02751746
0.02751746
0.010169497
0.022731815
0.056829542
0.04725825
0.048454657
0.071186475
0.054436717
0.029312078
0.029312078
0.050249275
0.0035892338
0.029910281
0.03888337
-0.0077766734
0.016151555
0.046660043
0.058025952
0.04546363
0.04546363
0.015553347
0.02213361
0.028115667
0.006580262
0.026321048
0.028115667
0.02213361
0.07238289
0.07238289
0.03349952
0.03349952
0.049651075
0.056231335
0.029312078
0.015553347
0.06580262
0.026321048
0.026321048
0.07776674
-0.0011964113
0.050249275
0.03708875
0.008973085
0.024526432
0.07956135
0.056829542
0.056829542
0.03409772
0.05144569
0.050847482
0.03050849
0.04127619
0.07716853
0.040079776
0.07298109
0.046061836
0.046061836
0.0077766734
0.039481577
0.03230311
0.00059820566
0.05144569
0.025124637
0.008973085
0.023330022
0.023330022
0.043669015
0.03230311
0.04546363
0.066400826
0.053240303
0.03230311
0.0317049
0.10408779
0.10408779
0.017347965
0.04127619
0.019740788
0.04725825
0.023330022
0.04127619
0.043070808
0.019740788
0.019740788
0.019142581
0.014356935
0.020338994
0.03469593
0.02871387
0.03230311
0.03290131
0.0071784677
0.03888337
0.03888337
0.059820563
0.03469593
0.039481577
0.042472597
0.06520442
0.13160524
0.059222363
-0.018544376
-0.018544376
0.083748795
0.01375873
0.029312078
0.022731815
0.03290131
0.01794617
0.026919257
0.0029910284
0.0029910284
0.03050849
0.058624156
0.06699904
0.10109676
0.07716853
0.046660043
0.038285162
0.0011964113
0.0011964113
0.05144569
-0.00418744
0.019740788
0.016151555
0.019142581
0.023928227
-0.0077766734
0.03589234
0.03589234
0.017347965
0.056829542
0.06460622
0.011365907
0.02871387
0.06101698
0.071186475
0.03230311
0.03230311
0.049651075
0.061615184
0.054436717
0.06999007
0.011964113
0.02751746
0.050249275
0.03529413
0.040079776
0.040079776
0.03469593
0.0047856453
-0.0077766734
0.020937199
0.048454657
-0.020937199
0.03409772
0.03469593
0.03469593
-0.00418744
0.006580262
0.03230311
-0.010169497
0.03290131
0.037686955
0.008973085
0.06699904
0.06699904
0.078364946
0.009571291
0.05144569
0.038285162
0.026919257
0.026919257
0.03409772
0.026321048
0.026321048
0.0634098
0.052043896
0.04725825
0.0011964113
0.05503492
0.040677987
0.008973085
0.06699904
0.059222363
0.059222363
0.019740788
-0.0011964113
0.0634098
0.0047856453
0.048454657
0.02751746
0.052043896
0.012562319
0.012562319
0.01794617
0.06101698
0.026919257
0.052642096
0.03290131
0.02213361
0.028115667
0.08015955
0.08015955
0.09391828
0.049651075
0.014955141
0.024526432
0.03409772
0.021535404
-0.026919257
0.049651075
0.049651075
0.06101698
0.005383851
0.03589234
-0.0047856453
0.05503492
0.019142581
0.006580262
0.015553347
0.015553347
0.050249275
0.041874398
0.03230311
0.06101698
0.02751746
0.043669015
0.049651075
0.058025952
0.119641125
0.119641125
0.08075776
0.075972125
0.028115667
0.01674976
0.066400826
0.03589234
0.046061836
0.040677987
0.040677987
0.07896315
0.076570325
0.038285162
0.011964113
0.0317049
0.010767702
0.018544376
0.052043896
0.052043896
0.08015955
0.02213361
0.056231335
0.015553347
0.047856454
0.059222363
0.031106694
0.03888337
0.03888337
0.052642096
0.053240303
0.02213361
-0.010767702
0.03469593
0.03409772
0.038285162
0.0634098
0.049651075
0.049651075
0.020338994
0.053838514
-0.01794617
0.0047856453
0.00418744
0.04127619
0.015553347
0.023330022
0.023330022
0.053838514
0.052043896
0.055633124
0.0634098
0.061615184
0.081355974
0.026919257
0.071186475
0.071186475
0.06580262
0.026321048
0.064008005
-0.016151555
0.01375873
0.04546363
0.06101698
0.06759725
0.06759725
0.04127619
0.075972125
0.040677987
-0.00418744
0.06580262
0.037686955
0.06460622
0.0628116
0.052642096
0.052642096
0.041874398
-0.012562319
0.008973085
0.01794617
0.014356935
0.02751746
0.04725825
0.03589234
0.03589234
0.005383851
0.05503492
0.06520442
0.042472597
0.076570325
0.03708875
0.049651075
0.011964113
0.011964113
0.01794617
0.017347965
0.03708875
0.0634098
0.052043896
0.043669015
0.024526432
0.04426722
0.04426722
0.040677987
0.03050849
0.07896315
0.0628116
0.043070808
0.058624156
0.10528419
0.055633124
0.055633124
0.07058826
0.046660043
0.005383851
0.03349952
0.053240303
0.022731815
0.056231335
0.029910281
0.019142581
0.019142581
0.03529413
0.029910281
0.084347
0.047856454
0.014356935
0.06460622
0.0628116
0.036490545
0.036490545
0.026321048
0.058025952
0.021535404
0.09332009
0.017347965
0.014955141
0.05503492
0.040677987
0.040677987
-0.0035892338
0.06580262
0.07776674
0.037686955
0.055633124
0.0741775
0.03230311
0.0047856453
0.0047856453
0.046061836
0.07058826
0.046061836
0.075972125
0.061615184
0.00837488
0.011365907
0.052043896
0.029312078
0.029312078
0.03708875
0.014955141
0.056231335
0.06819544
0.025124637
0.056829542
0.0317049
0.03050849
0.03050849
-0.008973085
0.020338994
0.016151555
0.013160524
0.016151555
0.020937199
0.03469593
0.01794617
0.01794617
0.02213361
0.0017946169
0.01674976
0.053240303
0.024526432
0.029910281
0.05144569
0.022731815
0.022731815
0.049052864
0.025124637
0.03230311
0.0634098
0.020338994
0.025722845
-0.0071784677
0.06699904
0.048454657
0.048454657
0.015553347
0.084347
0.066400826
0.028115667
0.08554341
0.049651075
0.03888337
0.0011964113
0.0011964113
0.03529413
0.0628116
0.03708875
0.043669015
0.014356935
0.018544376
-0.0059820567
-0.00418744
-0.00418744
0.04127619
0.013160524
0.09212367
0.050847482
0.059820563
0.08673982
0.03589234
0.03529413
0.03529413
0.059222363
0.04486543
0.07537391
0.005383851
0.037686955
0.010767702
0.011365907
0.02213361
0.07178468
0.07178468
0.0059820567
0.059222363
0.061615184
0.009571291
0.011365907
0.055633124
0.03230311
0.011964113
0.011964113
0.0077766734
0.03409772
0.006580262
0.04486543
0.050847482
0.059820563
0.06699904
0.024526432
0.024526432
0.03409772
0.060418773
0.06699904
0.04426722
0.043070808
0.076570325
0.03050849
0.0059820567
0.0059820567
0.048454657
0.04127619
0.038285162
0.052043896
0.056231335
0.04725825
0.066400826
0.048454657
0.048454657
-0.0035892338
0.043669015
0.04546363
0.029910281
0.0634098
0.08793623
0.075972125
0.038285162
0.0317049
0.0317049
0.03708875
0.076570325
0.075972125
0.038285162
0.009571291
0.005383851
0.054436717
0.0059820567
0.0059820567
0.025124637
0.08315059
0.01674976
0.046061836
0.06939186
0.081355974
0.05742774
0.026919257
0.026919257
0.05503492
0.091525465
0.046061836
0.021535404
0.011365907
0.049651075
0.026321048
0.052043896
0.052043896
0.02751746
0.047856454
0.039481577
0.08255238
0.048454657
0.0011964113
0.040677987
0.025124637
0.025124637
0.043669015
0.0628116
0.026321048
0.011964113
0.06699904
0.020937199
0.03708875
0.050847482
0.03409772
0.03409772
0.04546363
0.054436717
0.06759725
0.026321048
0.053838514
-0.011365907
0.021535404
0.084945194
0.084945194
0.009571291
0.07298109
0.03469593
0.06101698
0.046061836
0.018544376
0.04725825
0.031106694
0.031106694
0.019740788
0.020937199
0.058624156
0.06939186
0.039481577
0.016151555
0.078364946
-0.00059820566
-0.00059820566
0.014955141
-0.019142581
0.07058826
0.042472597
0.083748795
0.046660043
0.03469593
0.07477571
0.064008005
0.064008005
0.08195418
0.040677987
0.058624156
0.04127619
0.058624156
0.023928227
0.08793623
0.024526432
0.024526432
-0.00059820566
0.00837488
0.049052864
0.039481577
0.055633124
0.091525465
0.06999007
0.049052864
0.049052864
0.043070808
0.029910281
0.04426722
0.029312078
0.05742774
0.08793623
0.050847482
0.06939186
0.06939186
0.038285162
0.02751746
0.056231335
0.024526432
0.061615184
0.03469593
0.014356935
0.05503492
0.05503492
0.020338994
0.03469593
0.061615184
0.0628116
0.06999007
0.049052864
0.06879365
0.037686955
0.05742774
0.05742774
0.028115667
0.03409772
0.096311115
0.040677987
0.0317049
0.06101698
0.02751746
0.04486543
0.04486543
0.02751746
-0.015553347
0.020937199
0.031106694
-0.013160524
0.04725825
0.019740788
0.047856454
0.047856454
0.040079776
-0.00059820566
0.010169497
0.01375873
-0.029312078
0.042472597
0.01674976
0.040079776
0.040079776
0.047856454
-0.0023928226
0.036490545
0.04546363
0.03409772
0.056829542
0.0
-0.010169497
-0.010169497
0.056231335
-0.009571291
0.050249275
0.0628116
0.059820563
0.07537391
0.03349952
0.0735793
0.06580262
0.06580262
0.07776674
0.010169497
0.012562319
0.048454657
0.05144569
-0.03050849
-0.0029910284
0.055633124
0.055633124
0.03290131
0.076570325
-0.0023928226
-0.02751746
0.01375873
0.04725825
0.08793623
0.07298109
0.07298109
0.08195418
0.02751746
0.046061836
0.052043896
0.050847482
0.048454657
0.052043896
0.028115667
0.028115667
0.04725825
0.02213361
0.019740788
0.040677987
0.08195418
0.036490545
0.03589234
0.03409772
0.040079776
0.040079776
-0.00059820566
0.03888337
0.06580262
0.028115667
0.02751746
0.03708875
0.03708875
0.10289138
0.10289138
0.019142581
0.026321048
-0.019740788
0.03529413
0.03529413
0.046061836
0.015553347
0.043669015
0.043669015
0.055633124
0.055633124
0.031106694
0.039481577
0.081355974
0.046660043
0.089132644
0.046061836
0.046061836
0.059820563
0.03050849
0.036490545
0.01674976
0.011365907
-0.016151555
0.0071784677
0.06759725
0.026321048
0.026321048
0.078364946
0.041874398
0.023928227
0.04426722
0.049651075
0.020338994
0.021535404
0.039481577
0.039481577
0.055633124
0.00418744
0.03589234
0.083748795
0.022731815
0.029910281
0.01375873
0.056231335
0.056231335
0.071186475
0.05144569
0.06879365
0.084945194
-0.0029910284
0.010169497
0.042472597
0.06580262
0.06580262
0.03409772
0.053838514
0.025124637
0.015553347
0.049052864
0.04546363
0.019740788
0.03589234
0.03589234
0.08315059
0.03469593
0.040079776
0.01375873
0.050249275
0.038285162
0.0628116
0.036490545
-0.005383851
-0.005383851
0.029312078
0.03888337
0.06520442
0.04486543
0.0035892338
0.013160524
0.050847482
0.0634098
0.0634098
0.048454657
0.017347965
0.03230311
0.03589234
0.03050849
0.006580262
0.031106694
0.07477571
0.07477571
0.06520442
0.054436717
-0.00418744
0.029910281
0.0741775
0.03050849
0.03230311
0.008973085
0.008973085
0.053838514
0.0317049
0.043070808
0.037686955
0.026321048
-0.011365907
0.046660043
0.03708875
-0.0071784677
-0.0071784677
0.07058826
0.023928227
0.040677987
0.052043896
0.08973086
0.052642096
0.03888337
0.00837488
0.00837488
0.03409772
0.026321048
0.0059820567
0.043070808
0.05503492
0.026321048
0.04486543
0.036490545
0.036490545
0.011964113
0.047856454
0.05503492
0.048454657
0.00059820566
0.03349952
0.06759725
0.03050849
0.03050849
0.02871387
0.026919257
0.056829542
-0.010767702
0.012562319
0.05144569
0.046660043
-0.009571291
-0.009571291
0.03050849
0.05742774
0.06939186
0.03469593
0.084945194
0.05742774
0.04546363
0.03230311
0.036490545
0.036490545
0.084945194
0.03409772
0.019740788
0.059222363
0.0071784677
0.036490545
0.06699904
0.061615184
0.061615184
0.052043896
0.0634098
0.025124637
0.06460622
0.059820563
0.011964113
0.005383851
0.04546363
0.04546363
0.02213361
0.03529413
0.048454657
0.023928227
0.047856454
0.08015955
0.029910281
0.020338994
0.020338994
0.08255238
0.056231335
0.06460622
0.024526432
0.01375873
0.056829542
0.056829542
0.05503492
0.09870394
0.09990034
0.089132644
0.01794617
0.024526432
0.03290131
0.01375873
0.01375873
0.0059820567
0.061615184
0.060418773
0.06520442
0.038285162
0.029910281
0.07896315
0.02871387
0.02871387
0.03290131
0.024526432
0.037686955
0.010767702
0.043070808
0.036490545
0.05144569
0.016151555
0.03708875
0.03708875
0.029910281
0.017347965
0.06879365
0.03290131
0.04486543
0.07238289
0.049052864
0.07716853
0.07716853
0.07537391
0.060418773
0.041874398
0.04486543
0.043070808
0.04546363
0.059820563
0.09092726
0.09092726
0.07776674
0.02213361
0.0011964113
0.014356935
0.03529413
0.025722845
-0.0017946169
0.03409772
0.03409772
0.040677987
0.052043896
0.02751746
0.03050849
0.031106694
0.03469593
-0.014356935
0.050847482
0.017347965
0.017347965
0.049651075
0.040079776
0.018544376
0.0628116
0.036490545
0.050249275
0.059222363
0.03050849
0.03050849
0.061615184
0.048454657
0.042472597
0.0317049
0.03230311
0.05742774
0.050847482
0.029910281
0.029910281
0.0059820567
0.03888337
0.010169497
0.014955141
0.04725825
0.029312078
0.0017946169
0.010767702
0.010767702
0.00418744
0.062213387
0.09212367
-0.00059820566
0.019740788
0.047856454
0.058624156
0.023330022
0.01794617
0.01794617
0.03589234
0.019142581
0.040677987
0.014955141
0.054436717
0.023330022
0.025722845
0.03290131
0.03290131
0.03469593
0.0317049
0.012562319
0.050249275
0.019142581
0.03349952
0.08973086
0.06580262
0.06580262
0.008973085
0.03469593
0.021535404
0.02751746
0.02751746
0.047856454
0.00418744
0.0317049
0.0317049
0.042472597
0.07178468
0.05144569
0.053838514
0.047856454
0.010169497
0.06999007
0.03290131
0.0017946169
0.0017946169
0.05503492
0.0
0.03050849
0.052642096
0.0628116
0.043070808
0.041874398
0.04127619
0.04127619
0.0023928226
0.0059820567
0.043669015
0.026321048
0.03230311
0.023928227
0.04127619
-0.01794617
-0.01794617
0.0317049
0.025124637
0.011964113
0.0317049
0.040677987
0.06520442
0.04725825
0.036490545
0.036490545
0.039481577
0.06101698
0.08015955
0.011365907
0.010169497
0.06460622
0.020338994
0.06520442
0.06520442
0.023330022
0.025722845
0.014356935
0.046061836
0.03290131
0.023928227
0.043669015
0.062213387
0.055633124
0.055633124
0.058025952
0.018544376
0.06460622
0.060418773
0.03050849
0.048454657
0.029312078
0.047856454
0.047856454
0.03589234
0.052043896
0.052642096
0.064008005
0.059222363
0.03050849
0.056231335
0.06520442
0.06520442
0.053240303
0.03290131
0.036490545
0.039481577
0.109471634
0.056231335
0.036490545
0.008973085
0.008973085
0.04426722
0.021535404
0.048454657
0.07477571
0.06101698
0.07058826
0.08733803
0.048454657
0.04426722
0.04426722
0.056231335
0.07716853
0.03469593
0.008973085
0.0317049
0.06520442
0.058025952
0.041874398
0.041874398
0.050847482
0.038285162
0.010767702
0.07896315
0.023330022
0.06699904
0.009571291
0.03409772
0.03409772
0.04127619
-0.00418744
0.06879365
0.047856454
0.026321048
0.039481577
0.075972125
0.064008005
0.064008005
0.031106694
0.0059820567
0.049651075
0.078364946
0.023928227
-0.009571291
0.01674976
0.023928227
0.024526432
0.024526432
0.053838514
0.03230311
0.06939186
0.04546363
0.040079776
0.03888337
0.0035892338
0.02213361
0.02213361
0.00418744
0.015553347
0.015553347
0.03708875
0.03409772
0.04486543
0.042472597
0.019740788
0.019740788
0.026321048
0.046061836
0.07896315
0.01375873
0.03290131
0.01375873
0.02871387
0.013160524
0.013160524
0.050847482
0.058624156
0.03050849
0.0059820567
0.03888337
0.061615184
0.06101698
0.05503492
0.05503492
0.046061836
0.052043896
0.014356935
0.03888337
0.054436717
0.0071784677
0.019740788
0.005383851
0.03529413
0.03529413
0.03888337
0.00418744
0.01794617
0.040677987
0.026321048
0.01375873
0.03529413
0.048454657
0.048454657
0.0317049
0.025722845
0.05144569
0.022731815
0.04486543
0.050249275
0.020338994
0.048454657
0.048454657
0.021535404
-0.0071784677
0.017347965
0.03290131
0.0023928226
0.043070808
0.010169497
0.0741775
0.0741775
0.04486543
0.0
0.029312078
0.019142581
0.052043896
0.04426722
0.010767702
0.052043896
0.06699904
0.06699904
0.03290131
0.052642096
0.01794617
0.04486543
0.059820563
0.04546363
0.03230311
0.058025952
0.058025952
0.04725825
0.08075776
0.00418744
0.05742774
0.03349952
0.03409772
0.037686955
0.041874398
0.041874398
0.084945194
0.0634098
0.054436717
0.014356935
0.060418773
0.046660043
0.013160524
0.05503492
0.05503492
0.060418773
0.056231335
0.07058826
0.036490545
0.052642096
0.053240303
0.0735793
0.060418773
0.029910281
0.029910281
0.010169497
0.075972125
0.03050849
0.04127619
0.05742774
0.06101698
0.041874398
0.041874398
0.041874398
0.04426722
0.04486543
0.03469593
0.052043896
0.046660043
0.019142581
0.031106694
0.076570325
0.076570325
0.06580262
0.061615184
0.01794617
0.042472597
0.04426722
0.04426722
0.039481577
0.029910281
0.029910281
0.043669015
0.012562319
0.026321048
0.03469593
0.04546363
0.01674976
0.03589234
0.02213361
0.02213361
0.047856454
0.038285162
0.0317049
0.02213361
0.08015955
-0.0029910284
0.014356935
0.03409772
0.060418773
0.060418773
0.006580262
0.0317049
0.02213361
0.043669015
0.021535404
0.023330022
0.07058826
0.061615184
0.061615184
0.026919257
0.076570325
0.07058826
0.026321048
0.03050849
0.021535404
0.015553347
0.017347965
0.017347965
0.025722845
0.07238289
0.025722845
0.03888337
-0.0047856453
0.005383851
0.0023928226
0.062213387
0.062213387
0.056829542
0.025124637
0.06580262
0.022731815
0.024526432
0.07238289
0.0735793
0.050249275
0.037686955
0.037686955
-0.0047856453
0.06699904
0.0
0.03888337
0.01794617
0.006580262
0.020937199
0.009571291
0.009571291
0.058624156
0.04486543
0.043669015
0.029312078
0.053838514
0.056231335
0.01794617
0.05742774
0.05742774
0.0071784677
0.04546363
0.018544376
0.02871387
0.07178468
0.013160524
0.0071784677
0.054436717
0.054436717
0.043070808
0.015553347
0.055633124
0.0071784677
0.038285162
0.09870394
0.056231335
0.014356935
0.025124637
0.025124637
0.064008005
0.049052864
0.066400826
0.019142581
0.040677987
0.03409772
0.03290131
-0.008973085
-0.008973085
0.025124637
0.04486543
0.03409772
0.06999007
0.05742774
0.03230311
0.06520442
0.0628116
0.0628116
0.05144569
0.07716853
0.11006984
0.06819544
0.04127619
0.010169497
-0.01375873
0.039481577
0.039481577
0.04127619
0.0
0.03708875
0.043070808
0.037686955
0.05742774
0.024526432
0.05144569
0.05144569
0.062213387
0.03469593
0.03290131
0.026919257
0.041874398
0.049052864
0.0077766734
-0.0029910284
0.026321048
0.026321048
0.029910281
0.048454657
0.023330022
0.040677987
0.03529413
0.024526432
0.05503492
0.06101698
0.06101698
0.025124637
0.024526432
0.09272188
0.055633124
0.049651075
0.018544376
0.00837488
0.078364946
0.078364946
0.021535404
0.026919257
0.052642096
0.03349952
0.026919257
0.020338994
0.046061836
0.020338994
0.020338994
0.07178468
0.037686955
0.03409772
0.015553347
0.038285162
0.020937199
0.05742774
-0.021535404
-0.021535404
-0.01794617
0.019142581
0.055633124
0.056829542
0.041874398
0.01674976
0.026919257
0.060418773
0.03469593
0.03469593
0.022731815
0.0
0.029910281
0.009571291
0.06819544
0.071186475
0.064008005
0.055633124
0.055633124
0.02751746
0.058025952
0.06879365
0.09332009
0.06460622
0.03888337
0.06819544
0.026919257
0.026919257
0.03529413
0.03349952
0.0
0.019142581
0.04546363
0.040677987
0.025124637
0.06101698
0.06101698
0.04127619
0.03708875
0.04426722
0.089132644
0.06580262
0.017347965
-0.015553347
0.04127619
0.052642096
0.052642096
0.0047856453
0.022731815
0.025124637
0.049052864
0.053838514
0.03469593
0.00418744
0.054436717
0.054436717
0.07896315
0.039481577
0.00837488
-0.0071784677
0.04486543
0.066400826
0.0059820567
0.050249275
0.050249275
0.046660043
0.013160524
0.046660043
0.06819544
0.011964113
0.011964113
0.043070808
0.02751746
0.02751746
0.029312078
0.09212367
0.037686955
0.04546363
0.07776674
0.071186475
0.046660043
0.075972125
0.05144569
0.05144569
0.059820563
0.052642096
0.020338994
0.047856454
0.056829542
0.012562319
0.03469593
0.04725825
0.04725825
0.011365907
0.06460622
0.054436717
0.02213361
0.019142581
0.024526432
0.06759725
0.075972125
0.075972125
0.06759725
0.071186475
0.022731815
0.023330022
0.025722845
0.0011964113
0.078364946
0.019740788
0.019740788
0.025722845
0.042472597
0.08255238
0.0077766734
0.023928227
0.02751746
0.060418773
0.0741775
0.043669015
0.043669015
0.06819544
0.058025952
0.03708875
0.04426722
0.06819544
0.08733803
0.052642096
0.01794617
0.01794617
-0.03529413
0.00418744
0.00418744
0.013160524
0.026321048
0.050847482
0.023928227
0.011365907
0.011365907
0.049651075
0.008973085
-0.0017946169
0.00418744
0.008973085
0.038285162
0.04725825
0.053838514
0.053838514
-0.008973085
0.029312078
0.058624156
0.064008005
0.04426722
0.023330022
0.03888337
0.028115667
0.101694964
0.101694964
0.075972125
0.083748795
0.046660043
0.066400826
0.05503492
0.046061836
0.0071784677
0.05742774
0.05742774
-0.01674976
0.023928227
0.036490545
0.03230311
0.055633124
0.06460622
0.05742774
0.03230311
0.03230311
0.021535404
0.008973085
0.016151555
0.062213387
0.037686955
0.036490545
0.024526432
0.0317049
0.0317049
0.041874398
0.04426722
0.058624156
0.07956135
0.043070808
0.084347
0.062213387
0.046660043
0.046660043
0.028115667
0.062213387
0.040079776
0.06699904
0.060418773
0.096311115
0.06879365
0.04546363
0.047856454
0.047856454
0.11066805
0.043070808
0.04426722
0.061615184
0.04486543
0.037686955
0.031106694
-0.00418744
-0.00418744
0.046061836
0.010767702
-0.023928227
0.08793623
0.03888337
0.076570325
0.07238289
0.038285162
0.038285162
0.03469593
0.006580262
0.009571291
0.04546363
0.061615184
0.06460622
0.06939186
0.02871387
0.02871387
0.036490545
-0.0077766734
0.028115667
0.062213387
0.086141616
0.018544376
0.03050849
0.009571291
0.03589234
0.03589234
0.055633124
0.02213361
0.07477571
-0.010169497
0.013160524
0.03409772
0.066400826
0.0077766734
0.0077766734
0.02871387
0.07058826
0.03888337
0.014955141
0.07956135
0.023928227
0.03529413
0.023928227
0.023928227
0.026919257
0.040079776
0.086141616
0.025722845
0.052642096
0.028115667
0.04725825
0.037686955
0.037686955
0.0059820567
0.009571291
0.043070808
0.016151555
0.059222363
0.013160524
0.0317049
-0.022731815
0.046061836
0.046061836
0.03469593
0.06939186
0.08015955
0.058025952
0.02751746
0.005383851
0.015553347
0.046660043
0.046660043
0.015553347
0.028115667
0.049052864
0.03290131
0.08315059
0.019142581
0.089132644
0.042472597
0.042472597
0.07058826
0.09092726
0.023330022
0.03409772
0.025722845
0.049651075
0.042472597
0.03529413
0.03529413
0.04426722
0.043669015
0.07956135
0.013160524
0.029312078
0.04546363
0.029312078
0.08733803
0.06939186
0.06939186
0.058025952
0.005383851
0.049052864
0.0634098
0.02213361
0.03409772
0.046660043
0.011365907
0.011365907
0.025124637
0.021535404
0.01375873
0.03409772
0.059820563
0.026321048
0.03290131
0.021535404
0.021535404
0.046061836
0.054436717
0.0628116
0.03589234
0.059222363
0.03050849
0.038285162
0.023928227
0.023928227
0.038285162
0.09092726
0.039481577
0.0077766734
0.021535404
0.02871387
0.023928227
0.050847482
0.050847482
0.04546363
0.049651075
0.01375873
0.060418773
0.02871387
0.052642096
0.017347965
0.005383851
0.02751746
0.02751746
0.026321048
0.0077766734
0.064008005
0.023928227
0.02213361
0.047856454
0.04725825
0.0077766734
0.0077766734
0.008973085
0.019740788
0.012562319
0.084945194
0.03290131
0.043669015
0.0317049
0.058025952
0.058025952
0.03409772
0.0735793
-0.020338994
-0.0071784677
0.019142581
0.052043896
0.050847482
0.0
0.0
-0.006580262
0.03230311
0.04486543
0.02871387
0.039481577
-0.0023928226
0.022731815
0.075972125
0.06879365
0.06879365
-0.00837488
0.040677987
0.056231335
0.043669015
-0.011964113
0.03290131
0.0029910284
0.0634098
0.0634098
0.04725825
0.025722845
0.041874398
0.050847482
0.047856454
-0.01375873
0.026321048
0.02871387
0.02871387
0.013160524
0.006580262
0.09750752
0.02213361
0.050847482
0.08554341
0.05503492
0.03888337
0.03888337
0.03589234
0.025124637
0.025722845
0.024526432
0.0071784677
0.01794617
0.040079776
0.054436717
0.054436717
0.03529413
0.050249275
0.040079776
0.055633124
0.049651075
0.020937199
-0.0029910284
0.036490545
0.026321048
0.026321048
0.040677987
0.017347965
0.025722845
0.01375873
0.03409772
0.022731815
0.029910281
0.03349952
0.03349952
0.013160524
0.047856454
0.0017946169
0.06460622
0.07537391
0.025124637
0.043070808
0.03050849
0.03050849
0.02871387
0.03529413
0.040079776
0.02751746
0.050249275
0.021535404
0.06699904
0.046660043
0.046660043
0.039481577
0.0047856453
0.03529413
0.050249275
0.038285162
0.03469593
0.02751746
0.056231335
0.013160524
0.013160524
0.03708875
0.03050849
0.064008005
0.028115667
0.042472597
0.058624156
0.07537391
0.08853444
0.08853444
0.008973085
0.04127619
0.023928227
0.049052864
0.061615184
0.03050849
0.019142581
0.040677987
0.040677987
0.01674976
0.04127619
0.03529413
0.020937199
0.038285162
0.049052864
0.064008005
0.04725825
0.04725825
0.048454657
0.01794617
0.03589234
0.06939186
0.053240303
0.0023928226
0.046660043
0.04725825
0.08853444
0.08853444
0.053240303
0.049651075
0.046061836
0.05503492
0.06879365
0.03230311
0.05144569
0.037686955
0.037686955
0.056829542
0.025124637
0.05742774
0.02751746
0.04546363
0.071186475
0.043669015
0.02871387
0.02871387
0.04546363
0.040079776
-0.0017946169
0.025722845
0.04127619
0.0059820567
0.03708875
-0.0077766734
-0.0077766734
0.029312078
0.03529413
0.040677987
0.06879365
0.022731815
0.0035892338
0.01375873
0.040677987
0.040677987
0.014356935
0.038285162
0.031106694
-0.010169497
0.056829542
0.036490545
-0.00059820566
0.03589234
0.03469593
0.03469593
0.05144569
0.046061836
0.10468599
0.042472597
0.043669015
0.026919257
0.049651075
0.041874398
0.041874398
0.038285162
0.050249275
0.029312078
0.022731815
0.047856454
0.01674976
0.0735793
0.028115667
0.028115667
0.012562319
0.050249275
0.07896315
0.022731815
0.026919257
0.06101698
0.039481577
0.06699904
0.06699904
0.081355974
0.07238289
0.03529413
0.07956135
0.052642096
0.050249275
0.008973085
0.101694964
0.101694964
0.09332009
0.03409772
0.009571291
0.019740788
0.036490545
0.01375873
0.05503492
0.040677987
0.07298109
0.07298109
0.056231335
0.046061836
0.06520442
0.040677987
0.023928227
-0.006580262
0.049651075
0.020937199
0.020937199
0.05144569
0.026919257
0.06819544
0.02871387
0.029312078
0.020937199
0.050847482
0.041874398
0.041874398
0.02213361
0.02871387
0.03050849
0.020338994
0.039481577
-0.009571291
0.03349952
0.015553347
0.015553347
0.039481577
0.025722845
0.06580262
0.043669015
0.011365907
0.020338994
0.03708875
0.03589234
0.038285162
0.038285162
0.043669015
0.02213361
0.03050849
0.028115667
0.062213387
0.056231335
0.052642096
0.043070808
0.043070808
-0.0011964113
0.017347965
0.08255238
0.03888337
0.055633124
0.029910281
0.03708875
0.03529413
0.03529413
0.07776674
0.050249275
-0.0011964113
0.060418773
0.054436717
0.0741775
0.043669015
0.04725825
0.04725825
0.009571291
0.055633124
0.05503492
-0.010767702
0.02751746
0.01375873
0.01794617
0.052043896
-0.010767702
-0.010767702
0.064008005
0.050249275
0.055633124
0.03888337
0.084945194
0.04426722
-0.0011964113
0.058624156
0.058624156
0.086141616
0.040677987
0.03469593
0.023928227
0.02871387
0.01375873
0.02213361
0.049052864
0.049052864
0.026919257
0.014955141
0.022731815
0.025722845
0.04426722
0.049651075
0.03409772
0.026919257
0.026919257
0.00418744
0.0029910284
0.020937199
0.02751746
0.012562319
-0.016151555
0.059222363
0.052043896
0.041874398
0.041874398
0.0735793
0.064008005
0.06520442
0.07238289
0.053838514
0.038285162
0.083748795
0.040079776
0.040079776
0.037686955
0.03050849
0.04426722
0.052642096
0.040079776
0.03050849
0.00837488
0.04546363
0.04546363
0.047856454
0.038285162
0.05742774
0.038285162
0.06460622
0.011365907
0.03409772
0.031106694
0.031106694
0.06101698
0.049052864
0.038285162
0.03409772
0.008973085
0.0017946169
0.08673982
0.064008005
0.064008005
0.0317049
0.026919257
-0.0047856453
0.036490545
0.05503492
0.04725825
0.049651075
0.014356935
0.06580262
0.06580262
0.053240303
0.03230311
0.053838514
0.041874398
0.019740788
0.07238289
0.02213361
0.012562319
0.012562319
0.05742774
0.008973085
0.009571291
0.0317049
0.028115667
0.052043896
0.03708875
0.07298109
0.07298109
0.050249275
0.03708875
0.04725825
0.03529413
0.020937199
-0.0047856453
0.039481577
0.01794617
0.01794617
0.053240303
0.0317049
0.02213361
0.04127619
0.058025952
0.05144569
0.075972125
0.021535404
0.021535404
-0.0011964113
0.03230311
0.017347965
0.052043896
0.03409772
0.064008005
0.06879365
0.06699904
0.011964113
0.011964113
0.06580262
0.03290131
0.02213361
0.013160524
0.03529413
0.066400826
0.052043896
0.03050849
0.03050849
0.029910281
0.056231335
0.010169497
0.024526432
0.03529413
0.0634098
0.01674976
0.021535404
0.021535404
0.03290131
0.013160524
0.050847482
0.046660043
0.03409772
0.058025952
0.041874398
0.041874398
0.041874398
0.03589234
0.005383851
0.058624156
0.04127619
0.08554341
0.05503492
0.062213387
0.058624156
0.07058826
0.07058826
0.03708875
0.0035892338
0.054436717
0.048454657
0.039481577
0.042472597
0.064008005
0.054436717
0.054436717
0.03349952
0.046061836
0.036490545
0.024526432
0.04426722
0.025722845
-0.0071784677
0.050249275
0.050249275
0.0628116
0.029312078
0.050249275
0.0035892338
0.03469593
0.062213387
-0.0011964113
0.02213361
0.02213361
0.03589234
0.06699904
0.03290131
0.07178468
0.07238289
0.055633124
0.021535404
0.059222363
0.029312078
0.029312078
0.03888337
0.042472597
0.060418773
0.014955141
0.039481577
0.046061836
0.058624156
0.03409772
0.03409772
0.023330022
0.040677987
0.03349952
0.059820563
0.046061836
0.029312078
0.060418773
0.05503492
0.05503492
0.013160524
0.04725825
0.039481577
0.018544376
0.023330022
0.040677987
0.06520442
-0.0077766734
-0.0077766734
0.026919257
0.011365907
0.011365907
0.053240303
0.049651075
0.061615184
0.081355974
0.06520442
0.040079776
0.040079776
0.029910281
0.08853444
0.08793623
0.04127619
0.02751746
0.036490545
0.0017946169
0.056829542
0.056829542
0.04725825
0.062213387
0.011365907
0.08075776
0.07537391
0.009571291
0.04426722
0.014955141
0.014955141
0.029910281
0.02871387
0.028115667
0.01375873
0.0035892338
0.036490545
0.046061836
0.025124637
0.025124637
0.02871387
0.053838514
0.06759725
0.060418773
0.04127619
0.046061836
0.024526432
0.03349952
0.021535404
0.021535404
0.0077766734
0.018544376
0.010169497
0.025124637
0.064008005
0.043669015
0.029312078
0.0628116
0.0628116
0.02213361
0.018544376
0.060418773
0.056829542
0.0035892338
0.043669015
0.049052864
0.011964113
0.011964113
0.040677987
0.049052864
0.025722845
0.028115667
0.06879365
0.03349952
0.059222363
0.023928227
0.023928227
0.041874398
0.09212367
0.040079776
0.055633124
0.015553347
0.023330022
0.026321048
0.011964113
0.011964113
0.019142581
0.024526432
0.07298109
0.020937199
0.01794617
0.018544376
0.06460622
0.038285162
0.038285162
0.021535404
0.024526432
0.011964113
0.011365907
0.024526432
0.03409772
0.03529413
0.08195418
0.052642096
0.052642096
0.029312078
0.013160524
0.01794617
0.03230311
0.03529413
0.03409772
0.028115667
0.053240303
0.053240303
0.066400826
0.038285162
0.056829542
0.07298109
0.08195418
0.046061836
0.0059820567
0.03409772
0.03409772
0.020937199
0.071186475
0.014955141
-0.010169497
0.00059820566
0.06101698
0.013160524
0.039481577
0.039481577
0.025124637
0.031106694
0.07178468
0.04486543
0.047856454
0.060418773
0.05144569
0.04486543
0.08015955
0.08015955
0.06879365
0.06520442
0.09032906
0.021535404
0.08195418
-0.00059820566
0.049651075
0.106480606
0.106480606
0.053838514
-0.0035892338
0.03050849
0.03230311
0.07178468
0.03230311
0.008973085
0.054436717
0.054436717
0.049052864
0.024526432
0.023330022
0.008973085
0.061615184
0.00059820566
0.026321048
0.021535404
0.021535404
0.03589234
0.04486543
0.056829542
0.08255238
0.053838514
0.04546363
0.026919257
0.043070808
0.03230311
0.03230311
0.019740788
0.023330022
0.03349952
0.041874398
0.03409772
0.058025952
-0.00418744
0.059820563
0.059820563
0.055633124
0.0317049
0.041874398
0.04725825
0.084945194
0.042472597
0.03050849
0.046061836
0.046061836
0.064008005
0.075972125
0.026919257
0.08973086
-0.017347965
0.058624156
0.06520442
0.03050849
0.03050849
0.021535404
0.042472597
0.062213387
0.028115667
0.052642096
0.029312078
0.02751746
0.0317049
0.0317049
0.015553347
-0.021535404
0.020338994
0.014356935
0.02751746
0.052642096
0.036490545
0.052642096
0.058025952
0.058025952
0.066400826
0.03230311
0.06699904
-0.006580262
0.050847482
0.040079776
0.029312078
0.03230311
0.03230311
0.037686955
0.052642096
0.06999007
0.06939186
0.02871387
0.02751746
0.08255238
0.047856454
0.047856454
0.03230311
0.017347965
0.043669015
0.055633124
0.02871387
0.014955141
0.04546363
0.059222363
0.059222363
-0.006580262
0.019740788
0.03290131
0.011964113
0.050249275
0.056231335
0.048454657
0.04127619
0.015553347
0.015553347
0.0317049
0.049651075
0.08973086
0.04426722
0.02751746
0.023330022
0.048454657
0.041874398
0.041874398
0.04426722
0.04426722
0.025124637
-0.005383851
0.078364946
0.049651075
0.06819544
0.023330022
0.023330022
0.026919257
0.029910281
0.07477571
0.03529413
0.064008005
0.02751746
0.038285162
0.050249275
0.050249275
0.0047856453
0.02751746
0.0029910284
0.023330022
0.03589234
0.049052864
0.049052864
0.06460622
0.06460622
0.029910281
0.029910281
0.02751746
0.01794617
0.061615184
0.04486543
0.03349952
0.0023928226
0.046660043
0.046660043
0.053240303
0.06520442
0.052642096
0.03589234
0.047856454
0.03290131
0.01375873
0.01674976
0.01674976
0.019142581
0.046061836
0.014356935
0.025124637
0.03290131
0.05144569
0.04486543
0.06999007
0.06999007
0.03409772
0.038285162
0.06939186
0.078364946
0.06879365
0.0741775
0.03349952
0.038285162
0.038285162
0.0011964113
0.03290131
0.018544376
0.0047856453
0.04546363
0.04725825
0.06520442
0.08075776
0.08075776
0.043070808
0.03888337
0.016151555
0.017347965
0.07477571
0.060418773
0.04725825
0.07537391
0.04426722
0.04426722
0.010169497
0.043669015
0.03409772
0.04486543
0.056829542
0.07956135
-0.020338994
0.0029910284
0.0029910284
0.0035892338
0.07716853
0.0634098
0.053240303
0.037686955
0.011964113
0.08673982
0.07776674
0.07776674
0.011365907
0.018544376
0.023928227
0.03589234
0.00837488
0.029312078
0.05144569
0.020937199
0.020937199
0.025722845
0.046660043
0.023330022
0.053240303
0.055633124
0.02871387
0.024526432
0.024526432
0.03409772
0.03409772
0.0023928226
0.055633124
0.03589234
0.06520442
0.043070808
0.053240303
0.00837488
0.016151555
0.016151555
0.021535404
0.09212367
0.058025952
0.07776674
0.03529413
0.06939186
0.07537391
-0.011964113
-0.011964113
0.008973085
0.06819544
0.061615184
0.01674976
0.014955141
0.02751746
0.02751746
0.010169497
0.010169497
0.028115667
0.058025952
0.059820563
0.026321048
0.05503492
0.00837488
0.010767702
0.028115667
0.042472597
0.042472597
0.0071784677
0.02871387
0.04127619
0.01674976
0.06101698
0.021535404
-0.009571291
0.03349952
0.03349952
0.03469593
0.018544376
0.04725825
0.010169497
0.0059820567
0.042472597
0.028115667
0.05503492
0.05503492
0.03589234
0.049052864
0.0317049
0.019740788
0.04426722
0.019740788
0.046660043
0.010169497
0.010169497
0.05503492
0.03230311
0.052043896
0.03230311
0.036490545
0.046660043
0.014356935
0.03708875
0.036490545
0.036490545
-0.00418744
0.0017946169
0.04546363
0.08255238
0.03529413
0.04127619
-0.0077766734
0.060418773
0.060418773
0.04725825
0.0071784677
0.040079776
0.0628116
0.0023928226
0.04486543
-0.0077766734
0.010169497
0.010169497
0.018544376
0.037686955
0.019142581
0.050249275
-0.0059820567
0.08255238
0.026321048
0.037686955
0.037686955
0.07178468
0.048454657
0.06879365
0.049052864
0.052642096
0.047856454
0.038285162
0.086141616
0.09212367
0.09212367
0.040079776
0.091525465
0.020937199
0.046660043
0.025124637
0.026919257
0.010767702
-0.0071784677
-0.0071784677
0.03469593
0.019142581
0.02751746
0.0628116
0.0059820567
0.06819544
0.01794617
-0.009571291
-0.009571291
0.059820563
0.03409772
0.07178468
0.08015955
0.04546363
0.052043896
0.03708875
0.048454657
0.048454657
0.066400826
0.03469593
0.042472597
0.03050849
0.03469593
0.0035892338
0.016151555
0.06580262
0.041874398
0.041874398
0.06999007
0.0035892338
0.049651075
0.029910281
0.055633124
0.025722845
0.040079776
0.06101698
0.06101698
0.03469593
0.03888337
0.064008005
0.042472597
0.031106694
0.046061836
0.020338994
0.043070808
0.043070808
-0.023330022
0.015553347
0.04127619
0.02871387
0.03708875
0.043669015
0.014356935
0.04127619
0.04127619
0.050249275
0.04725825
0.0023928226
-0.011964113
0.03888337
0.019142581
0.021535404
0.015553347
0.058025952
0.058025952
0.06101698
0.07896315
0.00059820566
0.043070808
0.049052864
0.00059820566
0.04725825
0.053240303
0.053240303
0.0317049
0.010767702
0.0071784677
0.03290131
0.0047856453
0.07477571
0.066400826
0.043070808
0.043070808
0.042472597
0.024526432
0.043669015
-0.038285162
0.01674976
0.052043896
0.047856454
0.010169497
0.010169497
0.058025952
0.0029910284
-0.012562319
0.059222363
0.058025952
0.076570325
0.03469593
0.064008005
0.040079776
0.040079776
0.04426722
0.0077766734
0.025124637
0.03050849
0.04725825
0.03409772
0.017347965
0.036490545
0.036490545
0.024526432
0.039481577
0.052043896
0.04725825
0.0634098
0.04486543
0.058025952
0.05144569
0.05144569
0.09750752
0.029910281
0.047856454
0.022731815
0.036490545
0.02871387
0.019142581
0.0628116
0.0628116
0.0628116
-0.008973085
0.02751746
0.039481577
0.043669015
-0.0011964113
0.02751746
0.05144569
0.048454657
0.048454657
0.011365907
0.024526432
0.058025952
0.062213387
0.049052864
0.07058826
0.09272188
0.016151555
0.016151555
0.08075776
0.043070808
0.047856454
0.052642096
0.038285162
0.03708875
0.019142581
0.048454657
0.048454657
0.03349952
0.050249275
0.07956135
0.03409772
0.04127619
0.059820563
0.0634098
0.06699904
0.06699904
0.053240303
0.020937199
0.052043896
0.026919257
0.02751746
0.038285162
0.058624156
0.008973085
0.028115667
0.028115667
0.010767702
0.036490545
0.058624156
0.042472597
0.07058826
0.08793623
0.058624156
0.017347965
0.017347965
0.049052864
0.016151555
0.041874398
0.084347
0.09032906
0.062213387
0.016151555
0.036490545
0.036490545
0.019142581
0.017347965
0.03589234
0.0
0.046660043
0.064008005
0.08973086
-0.006580262
-0.006580262
0.03409772
0.028115667
0.06101698
0.06759725
0.03888337
0.03230311
0.075972125
0.020338994
0.025722845
0.025722845
0.08733803
0.029910281
0.055633124
-0.0077766734
0.015553347
0.041874398
0.036490545
0.04486543
0.04486543
0.04486543
0.040079776
0.02751746
0.049052864
0.054436717
0.061615184
0.052043896
0.058025952
0.058025952
0.056829542
0.048454657
0.011964113
0.06759725
0.022731815
0.031106694
0.012562319
0.0317049
0.0317049
0.037686955
0.050249275
0.019142581
-0.020937199
0.026919257
0.07477571
0.03050849
0.04127619
0.04127619
0.047856454
0.04725825
0.046660043
0.05503492
0.047856454
0.016151555
0.0071784677
0.03708875
0.058624156
0.058624156
0.060418773
0.009571291
0.06101698
0.011964113
0.020937199
0.03230311
0.026919257
0.012562319
0.012562319
0.02213361
0.038285162
0.009571291
0.050847482
0.08315059
0.011365907
0.052043896
0.04546363
0.04546363
0.049651075
0.0628116
0.036490545
0.020338994
0.03529413
0.010169497
0.016151555
0.042472597
0.042472597
0.052642096
-0.0029910284
0.049052864
0.04486543
0.048454657
0.04127619
0.048454657
0.076570325
0.04546363
0.04546363
0.0317049
0.041874398
0.05144569
0.04127619
0.0023928226
0.01794617
0.048454657
0.024526432
0.024526432
0.011365907
-0.01674976
0.042472597
0.050847482
0.040079776
0.055633124
0.040677987
0.052043896
0.052043896
0.011964113
0.03469593
0.031106694
0.028115667
0.0023928226
0.0317049
0.043669015
0.029910281
0.029910281
0.056231335
0.050847482
0.0317049
0.010169497
0.040677987
0.020937199
0.025124637
0.029312078
0.07896315
0.07896315
0.08973086
0.049052864
0.053240303
0.014356935
0.0741775
0.07238289
0.022731815
0.008973085
0.008973085
0.00418744
0.01375873
0.02213361
0.01674976
0.06819544
0.09990034
0.06999007
0.043070808
0.043070808
0.026321048
0.008973085
0.024526432
0.028115667
0.03050849
0.039481577
0.029312078
0.03589234
0.03589234
0.052642096
0.056829542
0.042472597
0.04426722
0.052043896
0.04486543
0.01794617
0.0035892338
-0.017347965
-0.017347965
0.038285162
0.024526432
0.058025952
0.025722845
0.039481577
0.037686955
0.0029910284
0.040677987
0.040677987
0.023928227
0.03529413
0.023330022
0.019740788
0.01674976
0.049052864
0.02871387
0.0741775
0.0741775
0.06939186
0.03888337
0.023928227
0.08255238
0.09391828
0.050847482
0.050249275
0.05144569
0.05144569
0.052642096
0.039481577
0.008973085
0.022731815
0.024526432
0.01674976
0.02213361
0.08853444
0.08853444
0.036490545
0.03529413
0.078364946
0.041874398
0.046061836
0.050249275
0.029910281
0.049052864
0.07716853
0.07716853
0.04486543
0.02751746
0.010169497
0.0077766734
0.03708875
0.053838514
0.083748795
0.01375873
0.01375873
0.05742774
-0.03230311
0.058025952
0.06819544
0.050847482
0.026919257
0.071186475
0.05742774
0.05742774
0.03708875
0.014955141
0.03888337
0.011964113
0.036490545
0.048454657
0.04725825
0.047856454
0.047856454
0.037686955
0.024526432
0.03349952
0.050249275
0.043669015
0.058624156
0.037686955
0.02751746
0.011964113
0.011964113
-0.015553347
0.024526432
-0.016151555
-0.011365907
0.01794617
-0.008973085
0.021535404
-0.0047856453
-0.0047856453
0.02751746
0.05742774
0.054436717
0.020937199
-0.0029910284
0.018544376
-0.022731815
0.02871387
0.02871387
0.07896315
0.059222363
0.02871387
0.09092726
0.06819544
0.024526432
0.08255238
0.07178468
0.07178468
0.091525465
0.0634098
0.03529413
0.01674976
0.050847482
0.06101698
0.014955141
0.03469593
0.06520442
0.06520442
0.064008005
0.01794617
0.056231335
0.060418773
0.03230311
0.043669015
0.029910281
0.041874398
0.041874398
0.09930215
0.038285162
0.056231335
0.03529413
0.0628116
0.07716853
-0.00837488
0.02871387
0.02871387
0.031106694
0.039481577
0.046061836
0.03469593
0.02213361
0.061615184
0.037686955
0.022731815
0.022731815
0.059222363
0.040079776
0.015553347
0.020937199
0.06699904
0.06879365
0.0741775
0.05144569
0.05144569
0.06939186
0.037686955
0.0317049
0.08733803
0.023330022
0.03469593
0.025722845
0.01375873
0.047856454
0.047856454
0.052642096
-0.0011964113
0.04486543
0.016151555
0.064008005
0.03708875
0.039481577
0.024526432
0.024526432
0.047856454
0.0628116
0.042472597
0.03708875
0.0071784677
0.029910281
0.05144569
0.04725825
0.04725825
0.029910281
0.0628116
0.036490545
0.056829542
0.043669015
0.052043896
0.06879365
0.01674976
0.01674976
0.020937199
0.02213361
-0.0047856453
0.07178468
0.03888337
0.04725825
-0.010767702
0.049651075
0.047856454
0.047856454
0.023928227
0.040677987
0.011964113
0.025722845
0.03469593
0.029910281
0.025124637
0.03589234
0.03589234
0.03708875
0.09750752
0.049052864
0.043669015
0.021535404
0.026919257
0.05144569
0.00837488
0.00837488
0.052642096
0.08015955
0.06999007
0.020937199
0.012562319
0.023330022
0.04546363
0.053838514
0.053838514
0.062213387
0.03349952
0.06879365
0.048454657
0.022731815
0.02871387
0.084945194
0.03349952
0.031106694
0.031106694
0.025722845
0.019142581
0.08075776
0.03409772
0.029312078
0.015553347
0.053240303
0.0735793
0.0735793
0.0059820567
0.02871387
0.020338994
0.04426722
0.0735793
0.037686955
0.022731815
0.012562319
0.012562319
-0.019740788
0.013160524
0.06580262
0.036490545
0.041874398
0.06460622
0.07178468
0.029910281
0.029910281
0.043070808
0.06759725
0.047856454
0.056829542
0.039481577
0.03349952
0.054436717
0.02871387
0.03230311
0.03230311
0.039481577
0.07178468
0.064008005
0.04127619
0.06819544
0.02213361
0.04725825
0.0023928226
0.0023928226
0.021535404
0.096311115
0.023330022
0.01375873
0.023330022
0.01674976
0.048454657
0.06879365
0.06879365
0.058025952
-0.005383851
0.023330022
0.050847482
0.03529413
0.055633124
0.054436717
0.0047856453
0.0047856453
0.026321048
0.06939186
0.006580262
0.041874398
0.02871387
0.064008005
0.020937199
0.03230311
0.03230311
0.019740788
0.013160524
0.03589234
0.066400826
0.0317049
0.011365907
0.028115667
0.016151555
0.053838514
0.053838514
0.020937199
0.018544376
0.0634098
0.076570325
0.056231335
0.00418744
0.039481577
0.023928227
0.023928227
0.020937199
0.049651075
0.043669015
0.081355974
0.07477571
0.06759725
0.049651075
0.059820563
0.059820563
0.04546363
0.02213361
0.03589234
0.04127619
0.071186475
0.08255238
0.043669015
0.03409772
0.03409772
0.041874398
0.031106694
0.043669015
0.012562319
0.012562319
0.025124637
0.013160524
0.05144569
0.039481577
0.039481577
0.028115667
0.008973085
0.03409772
0.053240303
0.058025952
0.040079776
0.064008005
0.06101698
0.06101698
0.024526432
0.005383851
0.052642096
0.06879365
0.041874398
0.0634098
0.02751746
0.040677987
0.040677987
0.025722845
-0.011964113
0.053240303
0.07776674
0.06819544
0.042472597
0.019740788
-0.00059820566
-0.00059820566
0.043070808
0.02213361
0.03589234
0.08673982
0.048454657
0.03230311
0.029312078
0.059222363
0.006580262
0.006580262
0.0029910284
0.03409772
0.0317049
0.06580262
0.06879365
-0.00059820566
0.03409772
0.060418773
0.060418773
0.04486543
0.024526432
0.04546363
0.0
0.06819544
0.03230311
0.046660043
0.06879365
0.06879365
0.009571291
0.084347
0.101694964
0.066400826
0.046061836
0.038285162
0.04426722
0.060418773
0.060418773
0.03469593
0.048454657
0.01375873
0.03230311
0.01674976
0.029312078
0.029312078
0.03589234
0.03589234
0.014955141
0.054436717
0.0047856453
0.041874398
0.03230311
0.043070808
0.005383851
0.018544376
0.07058826
0.07058826
0.041874398
0.024526432
0.038285162
0.00418744
0.040677987
0.02751746
0.06879365
0.023330022
0.023330022
0.053838514
0.056231335
0.03290131
-0.0059820567
0.056829542
0.06819544
0.011365907
0.043669015
0.043669015
0.043070808
0.03290131
0.008973085
0.0029910284
0.03290131
0.049651075
0.02871387
0.026919257
0.026919257
0.03589234
0.049052864
0.0628116
0.052642096
0.059820563
0.028115667
0.03589234
0.07477571
0.03290131
0.03290131
0.06879365
0.043070808
0.058025952
0.019740788
0.03230311
0.059222363
0.023330022
0.03230311
0.03230311
0.07238289
0.066400826
0.043070808
0.026919257
0.059222363
0.07477571
0.038285162
0.005383851
0.005383851
0.02871387
-0.012562319
0.031106694
0.043070808
0.03050849
-0.0011964113
0.009571291
0.04486543
0.04486543
0.07956135
0.050249275
0.053240303
0.020937199
-0.016151555
0.03589234
0.052642096
0.043669015
0.03349952
0.03349952
0.04426722
0.04127619
-0.02213361
-0.00059820566
0.01375873
0.0011964113
0.04426722
0.042472597
0.042472597
-0.014356935
0.021535404
0.020338994
0.03230311
0.0628116
0.0011964113
0.029910281
0.0741775
0.0741775
0.052043896
0.043669015
0.010169497
0.040079776
0.058025952
0.039481577
0.025124637
0.050249275
0.050249275
0.071186475
-0.0035892338
0.040677987
-0.0035892338
0.025124637
0.0
0.03888337
0.055633124
0.055633124
0.023330022
0.076570325
0.07716853
0.023330022
0.046660043
0.03708875
0.03290131
-0.0035892338
0.06520442
0.06520442
0.026321048
0.010767702
0.015553347
0.076570325
-0.005383851
0.04486543
0.053240303
0.07058826
0.07058826
0.019142581
0.041874398
0.0023928226
0.025722845
0.014955141
0.05742774
0.031106694
0.018544376
0.018544376
0.03230311
0.053838514
0.042472597
0.05144569
0.050249275
0.05144569
0.06819544
0.0628116
0.0628116
0.018544376
0.014955141
0.046660043
0.039481577
0.08733803
0.046660043
0.071186475
0.03529413
0.038285162
0.038285162
0.04546363
0.059222363
0.06460622
0.029910281
0.020338994
-0.0029910284
0.03409772
0.04486543
0.04486543
0.055633124
0.019142581
0.07956135
0.031106694
0.022731815
0.031106694
0.022731815
0.02871387
0.02871387
0.0047856453
0.0023928226
0.029910281
0.009571291
0.05742774
0.04486543
0.048454657
0.020937199
0.020937199
0.014955141
0.038285162
0.059222363
0.03230311
0.040677987
0.05144569
0.00837488
0.037686955
0.037686955
0.040079776
0.042472597
0.06879365
0.06879365
0.055633124
0.054436717
0.076570325
0.03529413
0.014356935
0.014356935
0.006580262
0.039481577
0.056829542
-0.0029910284
0.03589234
0.06580262
0.06101698
0.04486543
0.04486543
0.06819544
0.07716853
0.06759725
0.05503492
0.047856454
0.06999007
0.04725825
0.050847482
0.050847482
0.031106694
0.052043896
0.0059820567
0.03888337
0.08973086
0.049052864
0.0059820567
0.07956135
0.07956135
0.03409772
0.040677987
0.05742774
0.03230311
0.016151555
0.026321048
0.0317049
0.04725825
-0.019740788
-0.019740788
0.019142581
0.041874398
0.050847482
0.042472597
0.0023928226
0.03589234
0.024526432
0.005383851
0.005383851
0.056231335
0.075972125
-0.005383851
0.03708875
0.06101698
0.03529413
0.03050849
0.009571291
0.009571291
0.052642096
0.036490545
0.048454657
0.06460622
0.05144569
0.06580262
0.038285162
0.01375873
0.01375873
0.05742774
0.019142581
0.060418773
0.01794617
0.037686955
-0.0035892338
0.0
0.03290131
0.03290131
0.0634098
0.058025952
0.025722845
0.028115667
0.03469593
0.046061836
-0.008973085
0.03708875
0.08673982
0.08673982
0.020338994
0.03050849
0.005383851
-0.012562319
0.00059820566
0.026919257
0.0023928226
0.0077766734
0.0077766734
0.04127619
0.041874398
0.076570325
0.060418773
0.011964113
0.05742774
0.056829542
0.059222363
0.059222363
0.04486543
0.06939186
0.04127619
0.005383851
0.0317049
0.055633124
0.029910281
0.025124637
0.025124637
0.0011964113
0.041874398
0.071186475
0.041874398
0.026321048
-0.006580262
0.075972125
0.026321048
0.036490545
0.036490545
0.052642096
0.02213361
0.025124637
0.018544376
0.03708875
-0.00059820566
0.04546363
0.022731815
0.022731815
0.008973085
0.01794617
0.050249275
0.071186475
0.039481577
0.058624156
0.025722845
0.03290131
0.03290131
0.052642096
0.038285162
0.011365907
0.062213387
0.06101698
0.078364946
0.052642096
0.0317049
0.0317049
0.020937199
0.011964113
0.03050849
0.04725825
0.08733803
0.0741775
0.03349952
0.025722845
0.025722845
-0.010169497
0.0059820567
0.005383851
0.06819544
0.03050849
0.01375873
0.054436717
0.049651075
0.0077766734
0.0077766734
0.07238289
0.058025952
0.04486543
0.040677987
0.050249275
0.059820563
0.043669015
0.03888337
0.03888337
0.019740788
0.050847482
0.02751746
0.071186475
0.06699904
0.06520442
0.05742774
0.01794617
0.01794617
0.025124637
0.04127619
0.053240303
0.052642096
0.03349952
0.046660043
0.023330022
0.06759725
0.047856454
0.08195418
0.018544376
0.020338994
0.07537391
0.07537391
0.07477571
0.02871387
0.043669015
0.06699904
0.023330022
0.056829542
0.056829542
0.024526432
-0.01375873
-0.01375873
0.023330022
0.049651075
0.046061836
0.010169497
0.00837488
0.010169497
-0.008973085
0.049052864
0.049052864
0.036490545
0.053838514
0.029910281
0.029910281
0.026919257
0.078364946
0.04725825
0.056829542
0.056829542
0.0029910284
0.050249275
0.0317049
0.042472597
0.042472597
0.08733803
0.025124637
0.026919257
0.026919257
0.053240303
0.07537391
0.07716853
0.038285162
0.049651075
0.037686955
0.048454657
0.02871387
0.0011964113
0.0011964113
0.046660043
0.083748795
0.059222363
0.03708875
0.026321048
0.059820563
0.025722845
0.018544376
0.018544376
0.03708875
0.049651075
0.014356935
0.014356935
0.02751746
0.024526432
0.04725825
0.01794617
0.01794617
0.047856454
-0.01375873
0.040079776
0.041874398
0.058624156
0.043669015
0.020937199
0.0077766734
0.0077766734
0.04127619
0.06580262
0.008973085
0.022731815
0.04127619
0.042472597
0.028115667
0.021535404
0.021535404
0.020338994
0.039481577
0.053838514
0.014356935
0.049052864
0.04725825
0.03290131
0.066400826
0.06939186
0.06939186
0.00418744
0.026919257
0.058025952
0.06580262
0.06939186
0.0628116
0.07477571
0.03888337
0.03888337
0.005383851
0.0077766734
0.06699904
0.03349952
0.010169497
0.0071784677
0.043070808
0.059820563
0.059820563
0.050249275
0.089132644
0.03050849
0.08853444
0.061615184
0.023928227
0.06699904
0.03589234
0.03589234
0.056231335
0.05144569
0.06101698
0.059820563
0.066400826
0.020937199
0.019740788
0.02751746
0.02751746
-0.006580262
0.020937199
0.049651075
0.00837488
0.0017946169
0.052642096
0.020338994
0.08853444
0.06999007
0.06999007
0.096311115
0.09032906
0.02213361
0.02751746
0.03589234
0.048454657
0.01794617
0.052043896
0.052043896
0.064008005
0.056829542
0.06999007
0.008973085
0.010767702
0.040079776
0.071186475
0.07776674
0.07776674
0.029312078
0.04486543
0.07477571
0.07956135
0.03589234
0.066400826
0.043669015
0.014955141
0.014955141
-0.00059820566
0.06101698
0.039481577
0.026919257
0.06460622
0.060418773
0.006580262
0.03529413
0.03469593
0.03469593
0.058025952
0.053838514
0.03888337
0.04486543
-0.011964113
0.011964113
0.019740788
-0.00418744
-0.00418744
0.047856454
0.03589234
0.023330022
0.050249275
0.040079776
0.05742774
0.03469593
0.0011964113
0.0011964113
0.01794617
0.06699904
0.018544376
0.0023928226
0.018544376
0.05742774
0.04127619
0.03230311
0.03230311
0.050847482
0.10049855
0.0047856453
0.046061836
0.07896315
0.066400826
0.03349952
0.043070808
0.042472597
0.042472597
0.02751746
0.0634098
0.028115667
-0.050847482
0.0741775
0.031106694
0.040677987
0.03349952
0.03349952
0.0
0.019142581
0.042472597
0.038285162
0.08075776
-0.00418744
0.021535404
0.07298109
0.07298109
0.010767702
0.054436717
0.010767702
-0.0023928226
0.050249275
0.00059820566
0.009571291
0.029910281
0.029910281
0.053838514
0.04725825
0.052642096
0.0
0.03529413
0.06101698
0.043669015
0.025722845
0.025722845
0.029312078
0.03050849
0.03708875
0.053240303
0.025722845
0.058025952
0.06939186
0.043669015
0.03290131
0.03290131
0.026321048
0.056231335
0.052642096
0.039481577
0.0047856453
0.02213361
0.05742774
0.014356935
0.014356935
0.026919257
0.04127619
0.026919257
0.006580262
0.0035892338
0.019142581
0.010767702
0.01375873
0.01375873
0.06460622
0.023330022
0.026321048
0.03230311
0.028115667
-0.0011964113
0.03888337
0.03050849
0.03050849
-0.005383851
0.006580262
0.028115667
0.038285162
0.07537391
0.05742774
0.03050849
0.0029910284
0.0029910284
0.014955141
0.050847482
0.084945194
0.03409772
0.062213387
0.031106694
0.005383851
0.038285162
0.049052864
0.049052864
0.03409772
0.009571291
0.021535404
0.012562319
0.048454657
0.06580262
0.03529413
0.050249275
0.050249275
0.0035892338
0.0077766734
0.031106694
0.011964113
0.005383851
0.04486543
0.02213361
0.03349952
0.03349952
0.03888337
-0.009571291
0.025124637
0.05503492
0.07776674
0.036490545
0.038285162
0.053838514
0.053838514
0.029312078
0.019740788
0.041874398
0.025124637
0.06580262
0.053240303
0.0077766734
0.01794617
0.01794617
0.010169497
-0.014955141
0.03888337
0.058624156
0.04546363
0.05144569
0.029910281
0.043070808
0.04725825
0.04725825
0.029312078
0.015553347
0.01794617
0.025124637
0.037686955
0.054436717
-0.010169497
0.053838514
0.053838514
0.022731815
0.03230311
0.043070808
0.01674976
0.055633124
0.05144569
0.025722845
0.04426722
0.04426722
0.07058826
0.0634098
0.041874398
0.05742774
0.049651075
0.07716853
0.03888337
0.031106694
0.031106694
0.037686955
0.03469593
0.07716853
0.029910281
0.039481577
0.05144569
0.026321048
0.021535404
0.021535404
0.01674976
0.03230311
0.031106694
0.04486543
-0.009571291
0.023330022
0.023928227
0.07058826
0.06580262
0.06580262
0.047856454
0.056231335
0.062213387
0.03529413
0.029910281
0.0029910284
0.023330022
0.040677987
0.040677987
0.019142581
0.01674976
0.017347965
0.0741775
0.040079776
0.03050849
-0.006580262
0.036490545
0.036490545
0.03050849
0.049052864
0.025124637
0.062213387
0.025722845
0.020338994
0.026919257
0.03708875
0.03708875
0.062213387
0.015553347
0.061615184
0.05503492
0.076570325
0.08554341
0.031106694
0.010169497
0.048454657
0.048454657
0.059222363
0.07776674
0.076570325
0.024526432
0.06879365
0.061615184
0.048454657
0.011365907
0.011365907
-0.006580262
0.022731815
0.06879365
0.039481577
0.049052864
0.010767702
0.03589234
0.022731815
0.022731815
0.017347965
0.03469593
0.041874398
0.046660043
0.028115667
0.04725825
0.0317049
0.03409772
0.03409772
0.02213361
0.049052864
0.056829542
0.040677987
0.02751746
0.043669015
0.03708875
0.05503492
0.05503492
0.00837488
-0.00418744
0.050249275
0.066400826
0.017347965
0.056231335
0.010169497
0.040677987
0.060418773
0.060418773
0.036490545
0.084347
0.07716853
0.005383851
-0.00059820566
0.040677987
0.022731815
0.0317049
0.0317049
0.06999007
0.050847482
0.052642096
0.039481577
0.046061836
0.0047856453
0.03409772
0.053838514
0.053838514
0.03230311
0.0059820567
0.04725825
-0.0029910284
0.06101698
0.061615184
0.07477571
0.07298109
0.07298109
0.056231335
0.040079776
0.06520442
0.01674976
0.059820563
0.0317049
0.039481577
-0.005383851
0.029910281
0.029910281
0.03529413
0.0035892338
0.041874398
0.026321048
0.043070808
0.053240303
0.010169497
0.036490545
0.036490545
0.075972125
0.054436717
0.04486543
0.071186475
0.04486543
0.025124637
0.028115667
0.055633124
0.055633124
-0.0017946169
0.043070808
0.050249275
0.04127619
0.0077766734
0.042472597
0.050847482
0.015553347
0.015553347
0.04426722
0.02871387
0.06580262
0.052043896
0.03529413
0.0628116
0.0628116
0.084945194
0.084945194
-0.01375873
0.029910281
0.018544376
0.037686955
0.0741775
0.04426722
0.12323037
0.022731815
0.02751746
0.02751746
0.018544376
0.029312078
0.029312078
0.03708875
0.061615184
0.016151555
0.04127619
0.042472597
0.042472597
0.04546363
0.04486543
0.03050849
0.01794617
0.012562319
0.036490545
0.019142581
0.052642096
0.052642096
0.075972125
0.038285162
0.042472597
0.02213361
0.07716853
0.06460622
0.021535404
0.039481577
0.0017946169
0.0017946169
0.07058826
0.071186475
0.06759725
0.03409772
0.04486543
0.053240303
0.028115667
0.009571291
0.009571291
0.06699904
0.01794617
0.018544376
0.029312078
0.055633124
0.03349952
0.021535404
0.03409772
0.03409772
0.062213387
0.0741775
0.037686955
0.036490545
0.09032906
0.071186475
0.04127619
0.04127619
0.04127619
0.048454657
0.04127619
0.07178468
0.047856454
0.03589234
0.043070808
0.07477571
0.064008005
0.064008005
0.01674976
0.020338994
0.029910281
0.029910281
0.06879365
0.025722845
0.05144569
0.029312078
0.029312078
0.0029910284
0.023330022
0.04725825
0.052043896
0.086141616
0.019740788
-0.005383851
0.03708875
0.0023928226
0.0023928226
0.056829542
0.023928227
0.10289138
0.031106694
0.015553347
0.005383851
0.028115667
-0.011964113
-0.011964113
0.018544376
0.01794617
0.03529413
0.013160524
0.029312078
0.026919257
0.010169497
0.03290131
0.03290131
0.036490545
-0.0047856453
-0.011964113
0.041874398
0.04546363
0.039481577
0.043070808
0.06101698
0.06101698
0.040677987
0.03050849
0.042472597
0.03708875
0.0735793
0.02213361
0.06999007
0.050249275
0.028115667
0.028115667
0.011365907
0.029312078
0.041874398
0.012562319
-0.0077766734
0.01794617
0.06580262
0.03050849
0.03050849
-0.0035892338
0.08255238
0.0317049
0.04486543
0.022731815
0.04546363
0.04725825
0.046061836
0.046061836
0.017347965
0.038285162
0.058624156
0.06460622
0.018544376
0.058025952
0.06460622
0.03469593
0.03469593
0.056231335
0.040677987
-0.006580262
0.020937199
0.058025952
0.0077766734
0.03888337
0.013160524
0.014356935
0.014356935
0.05144569
0.09391828
0.10049855
0.056231335
0.03469593
0.03230311
0.07238289
0.05503492
0.05503492
0.00059820566
-0.0011964113
0.01375873
0.00059820566
0.029312078
0.03050849
0.0628116
0.066400826
0.066400826
0.03708875
0.039481577
0.014356935
0.04426722
0.019142581
0.029910281
0.03589234
0.022731815
0.022731815
0.040079776
0.020937199
0.031106694
0.029312078
0.03708875
0.081355974
0.06819544
0.02751746
0.02751746
0.0029910284
0.03349952
0.07537391
0.006580262
0.048454657
0.09272188
0.07238289
0.049651075
0.062213387
0.062213387
0.058624156
0.02213361
0.07896315
0.043669015
0.047856454
0.01794617
0.02751746
0.00418744
0.00418744
0.03529413
0.0741775
0.006580262
0.008973085
0.0029910284
0.029910281
0.020338994
0.050249275
0.050249275
0.0317049
0.0029910284
0.056231335
0.0
0.06999007
0.04426722
-0.00837488
0.03290131
0.03290131
0.04546363
0.012562319
0.07776674
0.056231335
0.04546363
0.09750752
0.06460622
0.07896315
0.038285162
0.038285162
0.06699904
0.053838514
0.07956135
0.07896315
0.029910281
0.050847482
0.075972125
0.055633124
0.055633124
0.05742774
0.07058826
0.06580262
0.03529413
0.04486543
0.060418773
0.0628116
0.03409772
0.03409772
0.02751746
0.053240303
0.00418744
0.041874398
0.00837488
0.0077766734
0.03230311
0.052043896
0.052043896
0.037686955
0.042472597
0.02751746
0.039481577
0.04426722
-0.016151555
0.05742774
0.019142581
0.03230311
0.03230311
0.015553347
0.0077766734
0.055633124
0.020937199
-0.014955141
0.020937199
0.046660043
0.014955141
0.014955141
0.0035892338
0.015553347
0.042472597
-0.014356935
0.024526432
0.029312078
0.014955141
0.010169497
0.010169497
0.024526432
0.05144569
0.0047856453
0.03529413
0.04426722
0.01674976
0.023330022
0.086141616
0.086141616
0.012562319
0.036490545
0.0317049
0.054436717
0.05144569
0.03469593
0.026919257
0.019142581
0.06101698
0.06101698
-0.0011964113
0.049651075
0.052642096
0.021535404
0.014955141
-0.0011964113
0.026321048
0.052043896
0.052043896
0.06101698
0.038285162
0.04127619
0.043669015
0.018544376
0.02871387
0.005383851
0.06939186
0.06939186
0.04546363
0.056231335
0.03050849
0.025722845
0.0059820567
0.04546363
0.029910281
0.025722845
0.025722845
0.050249275
0.029910281
0.031106694
0.047856454
-0.021535404
0.0017946169
0.049651075
0.03589234
0.03589234
0.060418773
0.041874398
0.03589234
0.061615184
0.040677987
0.019740788
0.014955141
0.020338994
0.052642096
0.052642096
0.0735793
-0.0029910284
0.06580262
0.037686955
0.059222363
0.043070808
0.052043896
0.054436717
0.054436717
0.01794617
-0.0059820567
0.018544376
0.0317049
0.058624156
0.08793623
0.09750752
0.062213387
0.062213387
0.0023928226
0.04486543
0.01794617
0.029910281
0.029312078
0.041874398
0.059222363
0.019740788
0.01794617
0.01794617
0.043070808
0.04426722
0.048454657
0.049052864
0.03349952
0.03708875
0.029910281
0.03589234
0.03589234
0.056231335
0.04486543
0.054436717
0.014955141
0.07058826
0.042472597
0.059222363
0.0071784677
0.0071784677
0.03230311
0.039481577
0.07537391
0.03349952
0.03409772
0.06999007
0.049651075
0.03888337
0.03888337
0.039481577
0.06460622
0.01375873
0.025124637
0.039481577
0.038285162
0.02871387
0.054436717
0.054436717
0.022731815
0.09571291
0.031106694
0.052043896
0.06939186
0.055633124
0.03708875
0.056829542
0.08195418
0.08195418
0.050847482
0.03409772
0.042472597
0.04486543
0.023330022
0.040079776
0.02871387
0.0071784677
0.0071784677
0.015553347
0.049651075
0.056829542
0.026919257
0.037686955
0.09750752
0.0047856453
0.038285162
0.038285162
0.059222363
0.07776674
0.03589234
0.00418744
0.06101698
0.047856454
0.04546363
0.058025952
0.058025952
0.06580262
0.0317049
-0.024526432
0.049651075
0.04127619
0.0047856453
0.050847482
0.040677987
0.03469593
0.03469593
0.06999007
0.050249275
0.03888337
0.06939186
0.07537391
0.0628116
0.018544376
0.031106694
0.031106694
0.023928227
0.06939186
-0.016151555
-0.011365907
-0.010767702
0.03349952
0.024526432
0.03050849
0.03050849
0.04546363
0.047856454
0.029910281
0.03050849
0.064008005
0.0077766734
0.028115667
0.0023928226
0.0023928226
0.046660043
0.040677987
0.075972125
0.040677987
0.014955141
0.040677987
0.060418773
0.011964113
0.06759725
0.06759725
0.052642096
0.024526432
0.022731815
0.03290131
0.052642096
0.047856454
0.03290131
0.056231335
0.056231335
0.06580262
0.042472597
0.01375873
-0.025722845
0.03230311
0.064008005
0.046061836
0.05503492
0.05503492
0.042472597
0.06580262
0.012562319
0.064008005
0.03708875
0.0059820567
0.058624156
0.03589234
0.03589234
0.014955141
0.043070808
0.05503492
0.0317049
0.038285162
0.03708875
0.017347965
0.04546363
0.04546363
0.06759725
0.043070808
-0.014356935
0.01375873
0.020937199
0.025124637
0.0029910284
0.036490545
0.060418773
0.060418773
0.07537391
0.038285162
0.053240303
0.084347
0.04546363
0.05742774
0.023330022
0.04426722
0.04426722
0.0634098
-0.008973085
0.06580262
0.023928227
0.0059820567
0.025722845
0.09272188
0.050847482
0.050847482
0.0035892338
0.043070808
0.055633124
0.058025952
0.019142581
0.03708875
0.02751746
0.043669015
0.043669015
0.019142581
0.020338994
0.04725825
0.05144569
0.06699904
0.019740788
0.040079776
0.052642096
0.052642096
0.02751746
0.006580262
0.052043896
0.04546363
0.064008005
0.064008005
0.056231335
0.07776674
0.040079776
0.040079776
0.013160524
0.053240303
0.066400826
0.03708875
0.056829542
0.022731815
0.03708875
0.019142581
0.019142581
0.021535404
0.0317049
-0.00837488
0.06819544
0.089132644
0.054436717
0.019142581
0.02871387
0.02871387
0.06101698
0.031106694
0.052043896
0.047856454
0.03469593
0.020937199
0.09032906
0.081355974
0.081355974
0.01794617
0.022731815
0.042472597
0.05144569
0.041874398
0.038285162
0.046660043
0.023928227
0.03708875
0.03708875
0.047856454
0.03888337
0.020338994
-0.03349952
0.04426722
0.040677987
0.024526432
0.060418773
0.060418773
0.020338994
0.018544376
0.043070808
0.07298109
0.06819544
0.022731815
0.0023928226
0.01375873
0.01375873
0.04486543
0.023928227
0.0017946169
0.03589234
0.04127619
0.05742774
0.07238289
0.042472597
0.042472597
0.03888337
0.06699904
0.041874398
0.053838514
0.06759725
0.020937199
-0.04546363
0.005383851
0.03409772
0.03409772
0.040079776
0.059820563
0.021535404
0.052642096
0.06101698
0.04725825
0.03469593
0.043070808
0.043070808
-0.031106694
0.016151555
0.047856454
0.021535404
0.05503492
0.046061836
0.04127619
0.023928227
0.023928227
0.038285162
0.07956135
0.00059820566
0.050847482
0.025722845
0.00837488
0.017347965
0.040079776
0.040079776
0.061615184
0.03050849
0.0047856453
0.008973085
0.03708875
0.052642096
0.023330022
0.052043896
0.052043896
0.059222363
0.04426722
0.00837488
0.058624156
0.02871387
0.01794617
0.021535404
0.036490545
0.050847482
0.050847482
0.03469593
0.011365907
0.042472597
0.03529413
0.03230311
0.075972125
0.03708875
0.012562319
0.012562319
0.03230311
0.020338994
0.059820563
0.07716853
0.04426722
0.07298109
0.016151555
0.015553347
0.015553347
-0.00837488
0.019740788
0.020338994
0.06939186
0.0317049
0.01794617
0.03349952
0.083748795
0.083748795
0.053240303
0.052642096
0.043669015
0.050249275
0.061615184
0.037686955
0.06819544
0.061615184
0.03050849
0.03050849
0.019740788
0.00837488
0.022731815
0.08315059
0.058624156
0.061615184
0.06879365
0.047856454
0.047856454
0.05742774
0.07178468
0.06939186
0.040677987
0.056231335
0.039481577
0.03888337
0.011365907
0.011365907
0.008973085
0.036490545
0.02213361
-0.0017946169
0.006580262
0.023330022
0.049651075
0.054436717
0.054436717
0.0741775
0.052043896
0.041874398
0.03230311
0.0077766734
0.01794617
0.03290131
0.07537391
0.036490545
0.036490545
0.03888337
0.040079776
-0.005383851
0.029312078
0.042472597
0.056829542
0.053838514
0.024526432
0.024526432
0.043669015
0.041874398
0.049651075
0.060418773
0.07178468
0.03050849
-0.013160524
0.005383851
0.005383851
0.04546363
0.037686955
0.059820563
0.019740788
0.042472597
0.025722845
0.009571291
0.011964113
0.011964113
0.047856454
0.0071784677
0.03589234
0.01674976
0.026919257
-0.023928227
0.01674976
0.042472597
0.03290131
0.03290131
0.050847482
0.053240303
0.049651075
0.016151555
0.015553347
0.020338994
0.046061836
0.006580262
0.006580262
0.06759725
0.0077766734
0.046660043
0.036490545
0.04546363
0.07896315
0.041874398
0.0071784677
0.0071784677
0.076570325
0.060418773
0.054436717
0.050847482
-0.019142581
0.041874398
0.013160524
0.043070808
0.043070808
0.054436717
0.041874398
0.05503492
-0.0059820567
0.089132644
-0.0017946169
0.031106694
0.02213361
0.02213361
0.0029910284
0.06460622
0.06580262
0.029910281
0.020937199
0.022731815
0.014356935
0.04426722
0.060418773
0.060418773
0.03469593
0.083748795
0.02871387
0.09810573
0.03469593
0.031106694
0.036490545
0.046061836
0.046061836
0.024526432
0.048454657
0.026919257
0.012562319
0.04486543
0.00837488
0.0059820567
0.014356935
0.014356935
0.03349952
0.00059820566
0.03888337
0.06819544
0.0628116
0.005383851
0.00059820566
0.01794617
0.01794617
0.047856454
0.071186475
0.050847482
0.029312078
0.041874398
0.03589234
0.0317049
0.056231335
0.037686955
0.037686955
0.058025952
0.005383851
0.0628116
-0.009571291
0.0023928226
0.0
0.017347965
0.053240303
0.053240303
0.024526432
0.040677987
0.040079776
0.03888337
-0.024526432
0.014955141
0.019142581
0.058624156
0.058624156
0.019740788
0.07716853
0.0071784677
0.046061836
0.029910281
0.049651075
0.012562319
0.061615184
0.061615184
0.124426775
0.046061836
0.058624156
0.01794617
0.04725825
0.01375873
0.14117652
0.028115667
0.028115667
0.011365907
0.012562319
0.02213361
-0.008973085
0.010169497
0.01375873
0.07896315
0.005383851
0.005383851
0.0
0.066400826
0.00837488
0.02213361
0.0317049
0.040677987
0.03230311
-0.018544376
0.013160524
0.013160524
0.041874398
0.010169497
0.06939186
0.053838514
0.019142581
0.02751746
0.021535404
0.026919257
0.026919257
0.07896315
0.058624156
0.049651075
0.04546363
0.06520442
0.066400826
0.00059820566
0.03230311
0.03230311
0.03888337
0.07238289
0.050249275
-0.023330022
0.049651075
0.012562319
0.03469593
0.04725825
0.04725825
0.03230311
0.052043896
0.050249275
0.08195418
0.04546363
0.046660043
0.042472597
0.07238289
0.019740788
0.019740788
0.049651075
0.0047856453
0.024526432
0.0634098
0.01375873
0.012562319
0.054436717
0.02871387
0.02871387
0.009571291
0.029910281
0.03290131
0.020937199
0.043070808
0.03349952
0.052642096
0.025124637
0.025124637
0.03589234
0.056231335
0.008973085
0.03050849
0.08195418
0.07058826
0.025722845
0.053838514
0.053838514
0.005383851
0.03469593
0.041874398
0.05503492
0.014356935
0.022731815
0.031106694
0.0735793
0.09870394
0.09870394
0.050249275
0.03589234
0.029312078
0.066400826
0.05742774
0.046061836
0.047856454
0.03888337
0.03888337
0.058025952
0.014356935
0.046061836
0.061615184
0.029910281
0.046061836
0.03589234
0.026321048
0.026321048
0.03290131
0.021535404
0.060418773
0.050249275
0.0035892338
0.047856454
0.04546363
0.012562319
0.012562319
0.039481577
0.019142581
0.040677987
0.058025952
0.02751746
0.037686955
0.018544376
0.056829542
0.042472597
0.042472597
0.09870394
0.08554341
0.029312078
0.019740788
0.008973085
0.03230311
0.023928227
0.076570325
0.076570325
0.024526432
0.036490545
0.056231335
-0.0011964113
0.01375873
0.02871387
0.06939186
0.03290131
0.03290131
0.03589234
0.04426722
0.042472597
0.053240303
0.06759725
0.050249275
0.023330022
0.03589234
0.03589234
0.04546363
0.050249275
-0.0071784677
0.031106694
0.03409772
0.031106694
0.012562319
0.053240303
0.064008005
0.064008005
0.0735793
0.023330022
0.013160524
0.043070808
0.053838514
0.07956135
0.017347965
0.023330022
0.023330022
0.061615184
0.055633124
-0.010767702
-0.0011964113
0.011365907
0.064008005
0.026919257
0.06759725
0.06759725
0.023330022
0.05503492
0.07956135
0.08673982
0.029312078
0.056231335
-0.008973085
-0.010169497
-0.010169497
0.014955141
0.020937199
0.046660043
0.03349952
0.06999007
0.0735793
0.0317049
0.059222363
0.011365907
0.011365907
0.04486543
0.020937199
0.053838514
0.041874398
0.055633124
0.029312078
0.043669015
0.037686955
0.037686955
0.056829542
0.053240303
0.053240303
0.058025952
0.04127619
0.071186475
0.049052864
0.04426722
0.04426722
0.037686955
0.058624156
-0.011365907
0.03349952
0.0077766734
0.03050849
0.009571291
0.040079776
0.040079776
0.046660043
0.054436717
0.037686955
-0.011365907
0.0077766734
0.026919257
0.012562319
0.020937199
0.08673982
0.08673982
0.059820563
0.07776674
0.0945165
0.01794617
0.0035892338
0.013160524
0.026321048
0.03050849
0.03050849
0.08255238
0.056231335
0.07058826
0.055633124
0.08793623
0.03589234
0.07238289
0.0317049
0.0317049
0.009571291
0.052642096
0.049651075
0.039481577
0.025722845
0.017347965
0.05503492
0.03888337
0.03888337
0.01794617
0.023330022
0.07178468
0.04486543
0.058025952
0.028115667
0.0317049
0.03230311
0.03230311
0.023928227
0.026321048
0.025722845
0.059222363
0.060418773
0.029910281
0.048454657
0.053240303
0.07477571
0.07477571
0.023330022
0.053240303
0.021535404
0.046061836
0.023330022
0.019740788
0.02213361
0.03230311
0.03230311
0.054436717
0.026321048
0.017347965
0.0
0.020937199
0.0017946169
0.049052864
0.0023928226
0.0023928226
0.024526432
0.040677987
0.05742774
0.0735793
0.025722845
0.0634098
0.028115667
0.06879365
0.06879365
0.0317049
0.03050849
0.07956135
0.019142581
-0.00059820566
0.031106694
0.06939186
0.04486543
0.10049855
0.10049855
0.043070808
0.0035892338
0.07298109
0.0317049
0.03050849
0.048454657
0.04546363
0.050847482
0.050847482
0.05503492
0.0317049
0.026321048
0.04127619
0.053838514
0.040079776
0.043070808
0.00837488
0.00837488
0.052043896
0.054436717
0.01674976
0.019740788
0.038285162
0.023928227
0.011365907
0.03589234
0.03589234
0.03469593
0.024526432
0.03469593
0.02213361
0.009571291
0.050847482
0.03469593
0.064008005
0.064008005
0.036490545
0.025124637
0.0071784677
-0.0077766734
0.060418773
0.064008005
0.058624156
0.014356935
0.03050849
0.03050849
0.019142581
0.041874398
0.038285162
0.05144569
0.026919257
0.07776674
0.040079776
0.040079776
0.040079776
0.039481577
0.04127619
0.02213361
0.019142581
0.006580262
0.046061836
0.0047856453
0.05144569
0.05144569
0.03469593
-0.010169497
0.025722845
0.025124637
0.046660043
0.0
-0.0029910284
0.04426722
0.04426722
0.04546363
-0.0011964113
0.024526432
0.008973085
0.021535404
0.0017946169
0.04127619
0.031106694
0.031106694
0.053240303
0.0634098
0.025124637
0.06101698
0.03589234
0.02871387
0.02871387
0.02871387
-0.0035892338
-0.0035892338
0.059222363
0.02213361
0.0
0.03888337
0.029910281
0.046061836
0.043070808
0.021535404
0.021535404
0.029312078
0.05144569
0.048454657
0.043669015
0.009571291
0.049052864
0.060418773
0.04426722
0.04426722
0.026919257
0.024526432
0.020937199
0.029910281
0.053240303
0.052043896
0.056829542
0.03708875
0.03708875
0.09870394
0.054436717
0.059820563
0.018544376
0.053838514
0.024526432
0.06699904
0.018544376
0.018544376
0.017347965
0.023330022
0.016151555
0.015553347
0.06460622
0.052642096
0.043070808
0.050847482
0.050847482
0.03589234
0.03290131
0.04725825
0.07298109
0.052043896
0.029312078
0.010169497
0.029312078
0.052043896
0.052043896
0.039481577
0.05742774
0.05503492
0.089132644
0.03409772
0.081355974
0.049651075
0.03888337
0.03888337
0.04486543
0.01794617
0.052642096
0.05144569
0.06759725
0.066400826
0.038285162
0.029312078
0.029312078
0.066400826
0.07178468
0.056231335
0.01674976
0.056231335
0.009571291
-0.00059820566
0.03888337
0.03888337
0.0023928226
0.07238289
0.09391828
0.06520442
0.029910281
0.03529413
0.05742774
0.054436717
0.025124637
0.025124637
0.014955141
0.039481577
0.031106694
0.00418744
0.03529413
0.014955141
0.06819544
0.03230311
0.03230311
0.01674976
0.019740788
0.06460622
0.07058826
0.078364946
0.0735793
0.053838514
0.056829542
0.056829542
0.08315059
0.043070808
0.04546363
0.06101698
0.06879365
0.049052864
0.04127619
0.020937199
0.020937199
0.047856454
0.052642096
-0.040079776
0.011964113
0.0628116
0.047856454
0.04426722
0.056829542
0.10049855
0.10049855
0.062213387
0.08195418
0.049651075
0.010169497
0.03529413
0.08255238
0.005383851
0.0035892338
0.0035892338
0.023928227
0.01674976
0.02213361
0.013160524
0.04486543
0.06460622
0.061615184
0.053838514
0.053838514
0.018544376
0.062213387
0.08733803
0.04127619
0.0011964113
0.03888337
0.01794617
0.02871387
0.02871387
-0.0029910284
0.03230311
0.0
0.021535404
0.025722845
0.03529413
0.021535404
0.014955141
0.014955141
0.049651075
0.055633124
0.03469593
0.056231335
0.06699904
0.029910281
0.062213387
0.076570325
-0.009571291
-0.009571291
0.026321048
0.052642096
0.047856454
0.041874398
0.05742774
0.046061836
0.04426722
0.038285162
0.038285162
0.024526432
0.03529413
-0.0023928226
0.00418744
0.03529413
-0.0059820567
0.08255238
0.07537391
0.07537391
0.047856454
0.0317049
0.039481577
0.058624156
0.03589234
0.02213361
0.054436717
-0.008973085
-0.008973085
0.03888337
0.010767702
0.049052864
0.054436717
0.046061836
0.06520442
0.083748795
0.059820563
0.05742774
0.05742774
0.011365907
0.050249275
0.02751746
0.039481577
0.014955141
0.016151555
0.025124637
0.01674976
0.01674976
0.025124637
0.053240303
0.0011964113
0.01794617
-0.0017946169
0.06759725
0.06580262
0.040079776
0.040079776
0.018544376
0.04486543
0.02213361
0.013160524
0.0077766734
0.019740788
0.00837488
0.025124637
0.025124637
0.084945194
0.0071784677
0.040677987
0.04725825
0.041874398
0.07298109
0.024526432
0.056231335
0.041874398
0.041874398
0.049651075
0.06759725
0.05144569
0.036490545
0.059820563
0.011365907
-0.012562319
0.08315059
0.08315059
0.084945194
0.0735793
0.043669015
-0.03230311
0.031106694
0.015553347
0.0023928226
-0.025722845
-0.025722845
0.012562319
0.052642096
0.0945165
0.039481577
0.025124637
0.03230311
0.026321048
0.05144569
0.05144569
0.038285162
0.008973085
0.066400826
0.046660043
0.09391828
0.049651075
0.011964113
0.04546363
0.005383851
0.005383851
0.016151555
0.03050849
0.023928227
0.096311115
0.01674976
0.059222363
0.056829542
0.029312078
0.029312078
0.019142581
-0.005383851
0.015553347
0.04127619
0.06759725
0.024526432
0.021535404
0.058025952
0.058025952
0.014356935
0.041874398
0.042472597
0.0317049
-0.019142581
0.0023928226
0.009571291
0.03589234
0.03589234
0.031106694
0.039481577
0.056231335
0.052043896
0.020937199
0.0634098
0.0047856453
0.052043896
0.06580262
0.06580262
0.031106694
0.076570325
0.06939186
0.059820563
0.03888337
0.059222363
0.053240303
0.05144569
0.014356935
0.014356935
-0.00837488
0.09272188
0.020937199
0.064008005
0.046660043
0.046061836
0.01674976
0.052043896
0.052043896
-0.012562319
0.041874398
0.06759725
0.04127619
0.046061836
0.046660043
0.015553347
0.0011964113
0.0011964113
0.049651075
0.0077766734
0.06999007
0.061615184
0.014955141
0.052043896
0.04486543
-0.008973085
0.049651075
0.049651075
0.02871387
0.005383851
0.075972125
0.03050849
-0.015553347
0.040677987
0.023330022
0.07298109
0.07298109
0.08015955
0.07956135
0.056829542
0.06759725
0.040079776
0.043070808
0.07238289
0.050249275
0.050249275
0.050249275
0.008973085
0.050249275
0.050249275
0.037686955
0.04426722
0.053240303
0.02871387
0.02871387
0.047856454
0.040677987
0.0059820567
0.023928227
0.064008005
0.049651075
0.062213387
0.053240303
0.06759725
0.06759725
0.06939186
0.026919257
0.046061836
0.0029910284
0.029910281
0.025124637
0.016151555
0.00837488
0.00837488
-0.0011964113
0.08554341
0.022731815
0.03290131
0.03409772
0.07058826
0.02751746
0.071186475
0.071186475
0.029312078
0.05144569
0.0059820567
0.024526432
0.009571291
0.0023928226
0.08195418
0.062213387
0.062213387
0.040677987
0.05503492
0.050249275
0.0628116
0.015553347
0.014955141
0.0017946169
0.08315059
0.08315059
0.048454657
0.052043896
0.040079776
0.04546363
0.01674976
0.028115667
0.0628116
0.07716853
0.050847482
0.050847482
0.037686955
0.03469593
0.075972125
0.086141616
0.07716853
0.056829542
0.020937199
0.0035892338
0.0035892338
0.029312078
0.06939186
0.053838514
-0.0035892338
0.039481577
0.058624156
0.03589234
0.056231335
0.056231335
0.066400826
0.07058826
0.02751746
0.08255238
0.040677987
0.025722845
0.028115667
0.029910281
0.029910281
0.040677987
0.040079776
0.02751746
0.037686955
0.0059820567
0.043669015
0.036490545
0.06580262
0.03050849
0.03050849
0.064008005
0.04725825
0.01375873
0.03708875
0.03050849
0.05144569
0.03349952
0.03529413
0.03529413
0.026321048
0.06460622
0.029910281
0.0035892338
-0.0023928226
0.008973085
0.06580262
0.0735793
0.0735793
0.03230311
0.023330022
0.00059820566
0.037686955
0.03589234
0.07896315
0.049052864
0.048454657
0.048454657
0.062213387
-0.0011964113
0.052642096
-0.022731815
0.009571291
0.019142581
0.0317049
0.022731815
0.014356935
0.014356935
0.024526432
0.050847482
0.049651075
0.07896315
0.03888337
0.020338994
0.0
0.019142581
0.019142581
0.04426722
0.052043896
0.026919257
0.041874398
0.015553347
0.022731815
0.02213361
0.028115667
0.028115667
0.0059820567
0.055633124
0.021535404
0.0634098
0.06759725
0.046660043
0.021535404
0.06819544
0.06819544
0.042472597
0.011365907
-0.031106694
0.03230311
0.031106694
0.053240303
0.07537391
0.071186475
0.071186475
0.04127619
0.029910281
0.062213387
0.050847482
0.066400826
0.058025952
0.02751746
0.01794617
0.020338994
0.020338994
0.019142581
0.01794617
0.010169497
0.042472597
0.04127619
0.03349952
0.025722845
0.076570325
0.076570325
0.052043896
0.010169497
-0.01375873
0.012562319
0.020338994
0.010767702
0.03050849
0.062213387
0.062213387
0.059222363
0.028115667
0.026919257
0.036490545
0.07178468
0.023330022
0.022731815
0.020937199
0.020937199
0.026321048
0.03230311
0.025124637
0.039481577
0.060418773
0.040677987
0.03409772
0.023330022
0.06580262
0.06580262
0.01375873
0.0735793
0.048454657
0.050249275
0.0945165
0.03888337
0.02751746
0.07537391
0.07537391
0.04426722
0.020937199
0.06759725
0.04725825
0.08554341
0.06460622
0.023928227
0.040677987
0.040677987
0.022731815
0.019142581
0.020338994
0.03409772
0.056829542
0.01674976
0.047856454
0.052642096
0.052642096
0.09032906
0.04127619
0.050847482
0.03409772
0.07238289
0.023330022
0.06520442
0.07477571
0.03469593
0.03469593
-0.005383851
0.040079776
0.019740788
0.0077766734
0.04546363
0.03888337
0.08075776
0.06520442
0.06520442
0.07477571
0.071186475
0.03529413
0.04426722
0.07956135
0.036490545
0.049651075
0.0047856453
0.0047856453
0.03888337
0.056829542
0.06460622
0.03529413
0.04486543
0.046660043
0.03589234
0.03050849
0.03050849
0.07537391
0.02751746
0.019740788
0.037686955
0.025124637
0.040079776
0.05503492
0.058025952
0.058025952
0.029910281
0.03290131
0.052642096
0.0317049
0.031106694
0.019142581
0.040079776
-0.0047856453
0.076570325
0.076570325
0.058025952
0.04725825
0.03529413
0.040677987
0.020338994
0.050249275
0.03589234
0.043669015
0.043669015
0.02871387
0.02871387
0.050249275
0.08673982
0.071186475
0.056829542
0.043070808
-0.0071784677
-0.0071784677
-0.017347965
0.029312078
-0.020338994
0.021535404
0.03349952
0.02751746
0.04486543
0.025722845
0.025722845
0.025124637
0.029910281
0.028115667
0.025124637
0.04426722
0.03708875
0.019740788
0.023928227
0.023928227
0.017347965
0.026321048
0.052043896
0.053838514
0.04486543
0.0741775
0.06999007
0.040079776
0.01794617
0.01794617
0.03050849
0.04725825
0.09332009
0.022731815
0.056231335
0.075972125
0.0634098
0.066400826
0.066400826
0.028115667
0.058025952
0.056231335
0.02871387
0.03409772
0.07058826
0.023330022
0.019740788
0.019740788
0.046061836
0.05144569
0.039481577
0.0634098
0.020937199
0.03349952
0.03290131
0.066400826
0.066400826
0.022731815
0.02751746
0.03409772
0.07298109
0.021535404
0.01794617
-0.014955141
0.020937199
0.02871387
0.02871387
0.09332009
0.040079776
0.022731815
0.084347
0.02751746
0.02751746
0.03290131
0.05144569
0.05144569
0.019740788
0.014955141
0.019740788
0.029312078
0.054436717
0.07178468
0.058624156
0.036490545
0.036490545
0.023330022
0.018544376
0.03469593
0.019740788
0.03708875
0.013160524
0.0741775
0.038285162
0.038285162
0.039481577
-0.02213361
0.008973085
0.04725825
0.016151555
0.026919257
0.059222363
0.042472597
0.042472597
0.056829542
0.047856454
0.053838514
0.052642096
0.050249275
0.041874398
0.06939186
0.056231335
0.01674976
0.01674976
0.03349952
0.05144569
0.03888337
0.025722845
0.037686955
0.0071784677
0.036490545
0.029312078
0.029312078
0.037686955
0.0634098
0.059222363
0.05503492
0.046061836
0.023330022
0.005383851
0.05503492
0.05503492
0.058624156
0.042472597
0.07537391
0.109471634
0.08554341
0.06460622
0.053838514
0.03050849
0.03050849
0.020937199
-0.0035892338
0.018544376
0.056829542
0.0029910284
